  -1.4855241762614238e-01	   9.8890453493622332e-01	  -9.5586435843485640e-01	  -2.9380831893246390e-01	   4.3254434036246103e-01	  -9.0161266274404306e-01	  -9.8170876804099183e-01	  -1.9038879891274593e-01	   9.2750421049712395e-01	   3.7381270645887188e-01	  -8.3936926363893716e-01	  -5.4356162415886977e-01	   7.2052812097978658e-01	   6.9342571835585831e-01	   3.3411155754314609e-01	  -9.4253353633496406e-01	  -4.2441135748604010e-02	  -9.9909896906981566e-01	
   9.6964909198266680e-01	   2.4450079430789140e-01	   8.8043872316562033e-01	   4.7415994637937536e-01	   7.3778412494517787e-01	   6.7503672861473119e-01	   8.5695336624696666e-03	   9.9996328087225672e-01	  -9.9985312618561561e-01	   1.7138437993336829e-02	  -2.5706083707216217e-02	  -9.9966954402964459e-01	   9.9941254788629708e-01	  -3.4271841611152314e-02	  -2.3618237591746333e-01	   9.7170874510111416e-01	   2.5280125698652056e-01	  -9.6751822952647004e-01	
   9.6423067839797605e-01	  -2.6506451825202659e-01	   8.5948160232764215e-01	  -5.1116668050676850e-01	   6.9324637856794702e-01	  -7.2070067198693988e-01	   7.7470693891868780e-01	  -6.3232045577478868e-01	   2.0034168241752695e-01	  -9.7972608941791217e-01	  -4.6429475587168340e-01	  -8.8568074364866589e-01	  -9.1972642057222953e-01	  -3.9255994612465794e-01	   5.7939048028234019e-01	  -8.1505010358762553e-01	   9.1460191426403192e-01	   4.0435546048565779e-01	
   1.4026107822158035e-01	  -9.9011455394621872e-01	  -9.6065365987223938e-01	  -2.7774906979875147e-01	  -4.0974571448395641e-01	   9.1219978593619067e-01	  -9.9602543994547776e-01	   8.9069203327623636e-02	   9.8413335403716484e-01	  -1.7743038485997908e-01	  -9.6441827389429391e-01	   2.6438115095208770e-01	   9.3703691705687941e-01	  -3.4923031952071243e-01	  -5.1514887619801483e-02	   9.9867222668577260e-01	  -2.2789231666595178e-01	   9.7368634169563328e-01	
   7.4314482547735272e-01	  -6.6913060635890431e-01	   1.0452846326752997e-01	  -9.9452189536828628e-01	  -5.8778525229262457e-01	  -8.0901699437483743e-01	   9.1442523050089342e-01	   4.0475486139562056e-01	   6.7234700435322392e-01	   7.4023611485609497e-01	   3.1519689836367054e-01	   9.4902629850912035e-01	  -9.5899011474491730e-02	   9.9539106867512894e-01	   9.5038424416504019e-01	  -3.1107842812198555e-01	   4.0871651250030894e-01	  -9.1266138978790201e-01	
   4.7100491468061673e-01	  -8.8213058576760905e-01	  -5.5630874069340996e-01	  -8.3097568257327026e-01	  -9.9505321657337842e-01	   9.9343324823429113e-02	   6.6346247932000391e-01	  -7.4820955522804788e-01	  -1.1963507706910663e-01	  -9.9281793312503619e-01	  -8.2220924901182246e-01	  -5.6918533962094897e-01	  -9.7137489666933785e-01	   2.3755169989000974e-01	  -3.4752444476433036e-01	  -9.3767092324079448e-01	   9.7251262169614905e-01	  -2.3285016779397638e-01	
  -2.0791169081780236e-01	  -9.7814760073379647e-01	  -9.1354545764256512e-01	   4.0673664307588059e-01	   5.8778525229257994e-01	   8.0901699437486985e-01	  -1.8427137835160062e-01	  -9.8287540366030179e-01	  -9.3208811824080251e-01	   3.6223161076073934e-01	   5.2778570293836546e-01	   8.4937756726549796e-01	   7.3757652033136045e-01	  -6.7526356088262474e-01	  -9.2308504406817771e-01	   3.8459589365677116e-01	   9.9970939175299423e-01	  -2.4106680419715563e-02	
  -8.4049207659210912e-01	  -5.4182383593367700e-01	   4.1285386162823173e-01	   9.1079728202199683e-01	   1.4649127761414246e-01	  -9.8921196190855687e-01	   0.0000000000000000e+00	   0.0000000000000000e+00	   0.0000000000000000e+00	   0.0000000000000000e+00	   0.0000000000000000e+00	   0.0000000000000000e+00	   0.0000000000000000e+00	   0.0000000000000000e+00	   0.0000000000000000e+00	   0.0000000000000000e+00	   0.0000000000000000e+00	   0.0000000000000000e+00	
  -8.4391202966454704e-01	  -5.3648158047361205e-01	   4.2437502762507073e-01	   9.0548651891025989e-01	   1.2764164786050464e-01	  -9.9182035154127324e-01	  -3.7529288907884706e-01	   9.2690627757441157e-01	  -7.1831049481370435e-01	  -6.9572266963244134e-01	   9.1444653078742977e-01	  -4.0470673620639708e-01	   3.1939933919017720e-02	   9.9948979015358075e-01	   8.1398232848523433e-01	  -5.8088963574310415e-01	  -1.8055396100283133e-01	   9.8356508029015954e-01	
  -9.5912474854709107e-01	  -2.8298359797783224e-01	   8.3984056655104122e-01	   5.4283314450687881e-01	  -6.5189899587873723e-01	  -7.5830580847854134e-01	   9.0350798684113331e-01	  -4.2857125161900728e-01	   6.3265336457143517e-01	  -7.7443509753654816e-01	   2.3970674874328055e-01	  -9.7084534020971935e-01	  -1.9949944059288557e-01	  -9.7989794019740939e-01	  -9.8785550546230005e-01	   1.5537535302558020e-01	  -7.4529823591628097e-01	  -6.6673123486160424e-01	
  -9.9730730470417894e-01	   7.3335802877489795e-02	   9.8924372003262795e-01	  -1.4627666381213264e-01	  -9.7585267153837219e-01	   2.1842976777770437e-01	  -3.3597143566849502e-01	  -9.4187217519940059e-01	  -7.7424638882970065e-01	   6.3288429383590172e-01	   8.5622077730101964e-01	   5.1661008557522148e-01	   1.9891494123166398e-01	  -9.8001675809896416e-01	   4.0413971914035640e-01	   9.1469726544532415e-01	   2.6599381478792444e-01	  -9.6397473540262835e-01	
  -4.9565450892644441e-01	   8.6851977972921568e-01	  -5.0865321556177046e-01	  -8.6097148982917604e-01	   9.9988702847269684e-01	  -1.5030977747316673e-02	   0.0000000000000000e+00	   0.0000000000000000e+00	   0.0000000000000000e+00	   0.0000000000000000e+00	   0.0000000000000000e+00	   0.0000000000000000e+00	   0.0000000000000000e+00	   0.0000000000000000e+00	   0.0000000000000000e+00	   0.0000000000000000e+00	   0.0000000000000000e+00	   0.0000000000000000e+00	
   1.4959407015302902e-02	   9.9988810181027277e-01	  -9.9955243228350099e-01	   2.9915466169476997e-02	  -4.4864830350632226e-02	  -9.9899306654130937e-01	   6.9673007608110049e-01	   7.1733339604679203e-01	  -2.9134402168047694e-02	   9.9957550320639132e-01	  -7.3732770455934304e-01	   6.7553523674879468e-01	  -9.9830237322062088e-01	  -5.8244069415487307e-02	  -7.0683045895044350e-01	   7.0738299548399208e-01	   7.2767579652624370e-01	   6.8592123100972513e-01	
   6.0232014773157105e-01	   7.9825462080505272e-01	  -2.7442087927323683e-01	   9.6160968226141708e-01	  -9.3289859682053833e-01	   3.6013915095455901e-01	   7.0211507965319386e-01	  -7.1206349079530062e-01	  -1.4068829847178440e-02	  -9.9990102911574763e-01	  -7.2187095483075236e-01	  -6.9202769061052605e-01	  -9.9960413605346232e-01	   2.8134874885296136e-02	   9.9130603033520037e-01	   1.3157641969998551e-01	  -1.4550991333264890e-01	   9.8935679364015339e-01	
   7.9638761850689699e-01	  -6.0478654175577773e-01	   2.6846647782217392e-01	  -9.6328902738781164e-01	  -3.6878086066342547e-01	  -9.2951636715463126e-01	  -8.6019746000850633e-02	  -9.9629343232701739e-01	  -9.8520120659589827e-01	   1.7140181598217138e-01	   2.5551326110307293e-01	   9.6680555097727527e-01	   9.4124283495602767e-01	  -3.3773055183672673e-01	  -6.7104992017323573e-01	  -7.4141216919841157e-01	   5.3403979884886510e-01	   8.4545933861154055e-01	
   8.1182688687625792e-01	  -5.8389819810032251e-01	   3.1812578851039303e-01	  -9.4804851283288283e-01	  -2.9530074983336274e-01	  -9.5540434746124836e-01	  -9.5237694555334451e-01	  -3.0492319291664566e-01	   8.1404369284303613e-01	   5.8080363819665637e-01	  -5.9817594592028667e-01	  -8.0136479690735751e-01	   3.2533426771505486e-01	   9.4559907690855383e-01	  -9.5120931374431761e-01	   3.0854633597899733e-01	  -5.9512110793826456e-01	   8.0363602886277596e-01	
   8.5975512567501300e-01	  -5.1070649484370423e-01	   4.7835775224891491e-01	  -8.7816505331478878e-01	  -3.7214066870248738e-02	  -9.9930731670841710e-01	  -8.4594796888914170e-01	   5.3326544415734989e-01	   4.3125593213532859e-01	  -9.0222963872735240e-01	   1.1630780916659218e-01	   9.9321321654862582e-01	  -6.2803664199617770e-01	  -7.7818376769897024e-01	  -4.5496597649993475e-01	   8.9050882097116857e-01	  -9.9965022811367732e-01	  -2.6446576948119475e-02	
  -2.9318039888358516e-01	  -9.5605713935437031e-01	  -8.2809050742092383e-01	   5.6059442694282724e-01	   7.7874020943833944e-01	   6.2734654394834377e-01	   9.9599961664485681e-01	   8.9357504683705069e-02	   9.8403047271340327e-01	   1.7800008081862248e-01	   9.6418833053395692e-01	   2.6521851983249795e-01	   9.3663194245712778e-01	   3.5031500734194609e-01	  -2.0657668458808917e-01	  -9.7843041315394175e-01	  -3.7743844520358483e-01	  -9.2603467542112083e-01	
  -7.8279544779635490e-01	  -6.2227910692012167e-01	   2.2553742618139169e-01	   9.7423450431170489e-01	   4.2969610675135445e-01	  -9.0297356320256050e-01	   3.5425535718431123e-01	  -9.3514872715852859e-01	  -7.4900628381243217e-01	  -6.6256289271999702e-01	  -8.8493433439484470e-01	   4.6571581872334256e-01	   1.2202082638101940e-01	   9.9252754013644029e-01	  -8.5923299573504863e-01	   5.1158445934192909e-01	   3.0461403381234708e-01	  -9.5247587392257360e-01	
  -9.9829238809956011e-01	   5.8414962659212470e-02	   9.9317538427504559e-01	  -1.1663042514762370e-01	  -9.8466646423970705e-01	   1.7444756863216448e-01	  -7.7997094650227972e-01	  -6.2581572576305400e-01	   2.1670935477532396e-01	   9.7623616791884060e-01	   4.4191694538226456e-01	  -8.9705597003977888e-01	  -9.0607411110572555e-01	   4.2311902011605357e-01	   8.1519606108403175e-01	   5.7918510166705728e-01	   7.4208205658003834e-01	  -6.7030904909745992e-01	
   7.1169211007972258e-02	   9.9746425670522287e-01	  -9.8986988680900545e-01	   1.4197748831672841e-01	  -2.1206572869746768e-01	  -9.7725540505643249e-01	   1.0522804839312817e-01	   9.9444811721445447e-01	  -9.7785411566274694e-01	   2.0928766920539563e-01	  -3.1102340880188678e-01	  -9.5040225124799360e-01	   9.1239734303714581e-01	  -4.0930561737991933e-01	  -9.8443745488917656e-01	   1.7573530496550904e-01	   9.9941544924927184e-01	   3.4187129184476577e-02	
   3.8696778881583982e-01	   9.2209323304044455e-01	  -7.0051186083795924e-01	   7.1364075894341938e-01	  -9.2911884047130855e-01	  -3.6978126004605905e-01	   9.7223933407909191e-01	  -2.3398862636770176e-01	   8.9049864546111213e-01	  -4.5498589256363164e-01	   7.5931628604379697e-01	  -6.5072173603519246e-01	   5.8597567513615090e-01	  -8.1032864206365807e-01	   5.9198463429045745e-01	   8.0594924949651348e-01	   1.6046597632628401e-01	   9.8704137220364396e-01	
   2.1144244406573559e-01	   9.7739045056083307e-01	  -9.1058418569501653e-01	   4.1332365134618609e-01	  -5.9651473556765977e-01	  -8.0260212449920965e-01	  -4.2691420485873233e-01	  -9.0429213293594246e-01	  -6.3548852337967265e-01	   7.7211031378470996e-01	   9.6951236016969811e-01	   2.4504241159069101e-01	  -1.9230867330544646e-01	  -9.8133448638652210e-01	   7.9357871236716737e-01	  -6.0846760577508863e-01	  -9.7411427813058815e-01	  -2.2605612830030342e-01	
   9.7899317230940364e-01	  -2.0389303218003879e-01	   9.1685526285685937e-01	  -3.9921977277143900e-01	   8.1619691235621405e-01	  -5.7777383140826188e-01	  -7.8993691015810363e-01	  -6.1318812608356021e-01	   2.4800064406026368e-01	   9.6875986732817043e-01	   3.9812718518573531e-01	  -9.1733022648121831e-01	  -8.7699136109138875e-01	   4.8050614207424375e-01	  -8.9836762792394342e-01	  -4.3924435693393621e-01	  -6.4831805527599717e-01	   7.6136962062006985e-01	
   1.6050616139225082e-01	  -9.8703483836951000e-01	  -9.4847554431024950e-01	  -3.1685034613422153e-01	  -4.6497849897557930e-01	   8.8532197278188973e-01	  -9.8087629542329635e-01	   1.9463219948577409e-01	   9.2423661384665967e-01	  -3.8182022160338824e-01	  -8.3224727634566986e-01	   5.5440460948229331e-01	   7.0842663674947903e-01	  -7.0578445742579354e-01	   3.4672072581898999e-02	   9.9939874293640951e-01	  -3.4954545053998798e-01	   9.3691940849082467e-01	
  -2.4698320660106188e-01	  -9.6901976019947977e-01	  -8.7799859131411440e-01	   4.7866321526771904e-01	   6.8068502154901289e-01	   7.3257620862188788e-01	   9.7757790810721557e-01	   2.1057405723573938e-01	   9.1131713283855909e-01	   4.1170509274832634e-01	   8.0418908457795257e-01	   5.9437354941625264e-01	   6.6099783321018402e-01	   7.5038780939687566e-01	  -3.7394903999870159e-02	  -9.9930056597344152e-01	  -4.4549574889348637e-01	  -8.9528405420728441e-01	
  -4.4081051166646851e-01	  -8.9760018538564612e-01	  -6.1137218560869244e-01	   7.9134319398352726e-01	   9.7980908358009833e-01	   1.9993538889833384e-01	   2.9824118452909321e-01	  -9.5449054256743859e-01	  -8.2210439170136673e-01	  -5.6933678007425959e-01	  -7.8861195970426434e-01	   6.1489119119678393e-01	   3.5171126170934841e-01	   9.3610853451232789e-01	  -9.8821873710966190e-01	   1.5304812192700987e-01	   7.2528303880509559e-01	  -6.8845080697290650e-01	
   4.1678186049540433e-01	  -9.0900653504911022e-01	  -6.5258576152397862e-01	  -7.5771486976049829e-01	  -9.6075367613695251e-01	   2.7740290876148327e-01	   1.0929192813743958e-01	   9.9400969534708294e-01	  -9.7611054888800153e-01	   2.1727447238358322e-01	  -3.2265393606396747e-01	  -9.4651700330338973e-01	   9.0558360730087106e-01	  -4.2416780899538065e-01	   9.4911220211892589e-01	   3.1493813327217657e-01	  -8.5801041582642146e-01	  -5.1363228708227759e-01	
   9.3093626920601058e-01	  -3.6518168447608940e-01	   7.3328467464641178e-01	  -6.7992174985707443e-01	   4.3434632935653794e-01	  -9.0074594985184464e-01	   8.8317973513386072e-01	  -4.6903470601745834e-01	   5.6001288910223290e-01	  -8.2848389485817420e-01	   1.0600433500385563e-01	  -9.9436566762956491e-01	  -3.7277112807874041e-01	  -9.2792331906839332e-01	   6.5090116364266548e-01	  -7.5916248271936093e-01	   9.9346693168507183e-01	   1.1412035597670087e-01	
  -3.2493513699751349e-02	  -9.9947194636340042e-01	  -9.9788834313488817e-01	   6.4952710763352600e-02	   9.7343310796702678e-02	   9.9525086276935049e-01	   2.9458873347575754e-01	  -9.5562413014173575e-01	  -8.2643495621829821e-01	  -5.6303220435465284e-01	  -7.8150558758064015e-01	   6.2389824216793421e-01	   3.6598947371908086e-01	   9.3061899031065887e-01	  -9.6469173239157935e-01	  -2.6338158905917008e-01	   9.4554728629760521e-01	  -3.2548476058831788e-01	
   4.3729745838629624e-02	  -9.9904339711990930e-01	  -9.9617541865777770e-01	  -8.7375827675629528e-02	  -1.3085474157581892e-01	   9.9140155164651911e-01	  -9.9421120856234291e-01	  -1.0744334678799521e-01	   9.7691185446198925e-01	   2.1364275932415128e-01	  -9.4830222240472473e-01	  -3.1736870510852205e-01	   9.0871354277672556e-01	   4.1742028840746614e-01	  -1.5081716963335928e-01	   9.8856167300972297e-01	   6.3863962712663175e-02	   9.9795861350390458e-01	
   2.4075667002812937e-01	  -9.7058550671075161e-01	  -8.8407245167393289e-01	  -4.6734986914649029e-01	  -6.6644934908537012e-01	   7.4555031024316964e-01	  -4.8837135119932373e-01	   8.7263590536245228e-01	  -5.2298684665549355e-01	  -8.5234075241381202e-01	   9.9919493712055762e-01	  -4.0118295485289474e-02	  -4.5296951645068645e-01	   8.9152600476174071e-01	   7.2938910212832364e-01	   6.8409907008885618e-01	  -9.6454642263209855e-01	   2.6391324064476418e-01	
  -3.2493513699751349e-02	  -9.9947194636340042e-01	  -9.9788834313488817e-01	   6.4952710763352600e-02	   9.7343310796702678e-02	   9.9525086276935049e-01	   9.5647794827266919e-01	  -2.9180461694103682e-01	   8.2970013106378948e-01	  -5.5820936261651011e-01	   6.3070180981024704e-01	  -7.7602527478303118e-01	   3.7680461497453899e-01	  -9.2629276264790572e-01	  -3.2272985776759261e-01	  -9.4649111929553220e-01	   2.6057119913617655e-01	  -9.6545463393198083e-01	
  -1.1409895227476517e-02	  -9.9993490502677118e-01	  -9.9973962858179599e-01	   2.2818305001304284e-02	   3.4223744061225678e-02	   9.9941419608810422e-01	  -2.9670868845486698e-01	  -9.5496803831091259e-01	  -8.2392790839078534e-01	   5.6669462832709616e-01	   7.8564182661484994e-01	   6.1868159846021131e-01	   3.5771439645042874e-01	  -9.3383103962767566e-01	  -9.5152045964367271e-01	   3.0758545947345073e-01	   9.5829128974037647e-01	   2.8579328894801898e-01	
   1.8217165028577562e-01	  -9.8326674398769176e-01	  -9.3362697966431418e-01	  -3.5824665084671814e-01	  -5.2233238555932116e-01	   8.5274197679949393e-01	   0.0000000000000000e+00	   0.0000000000000000e+00	   0.0000000000000000e+00	   0.0000000000000000e+00	   0.0000000000000000e+00	   0.0000000000000000e+00	   0.0000000000000000e+00	   0.0000000000000000e+00	   0.0000000000000000e+00	   0.0000000000000000e+00	   0.0000000000000000e+00	   0.0000000000000000e+00	
  -9.3715923435441739e-01	  -3.4890194820929588e-01	   7.5653486107151569e-01	   6.5395336529717663e-01	  -4.8082802797399693e-01	  -8.7681492204149747e-01	   1.0223569652716855e-01	   9.9476020344382732e-01	  -9.7909572471120943e-01	   2.0340000455317514e-01	  -3.0243276329241509e-01	  -9.5317072116558110e-01	   9.1725687629553665e-01	  -3.9829614972850863e-01	   2.5126264590153480e-01	  -9.6791894432052517e-01	  -4.4288490006371889e-01	   8.9657847693079817e-01	
   1.2388341643863511e-01	   9.9229677976474950e-01	  -9.6930579826298346e-01	   2.4585823039662610e-01	  -3.6404524416382833e-01	  -9.3138126468256743e-01	   8.7147256089271685e-01	   4.9044426351124754e-01	   5.1892884877781997e-01	   8.5481743659457865e-01	   3.2991944638315555e-02	   9.9945561761840251e-01	  -4.6142569981225284e-01	   8.8717885657446360e-01	  -3.7870526516038888e-01	   9.2551732676368603e-01	   5.9462726151222134e-01	   8.0400150489067890e-01	
   8.5844879360181481e-01	   5.1289927740599206e-01	   4.7386866247282233e-01	   8.8059553185683292e-01	  -4.4864830350814990e-02	   9.9899306654130116e-01	   5.0658654213890897e-01	  -8.6218911807314258e-01	  -4.8674015064748682e-01	  -8.7354680798893758e-01	  -9.9973856181227294e-01	  -2.2864995638052093e-02	  -5.2616805149532364e-01	   8.5038060983633346e-01	   8.7709478160108578e-01	  -4.8031733685985512e-01	  -7.3375696929633659e-03	   9.9997307967314841e-01	
   8.6541734169790618e-01	  -5.0105171857656527e-01	   4.9789435062294091e-01	  -8.6723769268739703e-01	  -3.6445309728855898e-03	  -9.9999335867494021e-01	  -6.0792255326207167e-01	  -7.9399632822534105e-01	  -2.6086033847064721e-01	   9.6537655027091862e-01	   9.2508831927783985e-01	  -3.7975202637471400e-01	  -8.6390376762595877e-01	  -5.0365690731059520e-01	  -9.2393994480305530e-01	  -3.8253755161725911e-01	  -1.2827349520147610e-01	   9.9173883176408739e-01	
  -5.5259835942680036e-01	  -8.3344769071538538e-01	  -3.8927010631761744e-01	   9.2112365311475464e-01	   9.8281840367682349e-01	  -1.8457514836548378e-01	  -1.4966300519825021e-01	   9.8873706559177221e-01	  -9.5520196975005711e-01	  -2.9595472117472815e-01	   4.3557979992641388e-01	  -9.0015011964453195e-01	   8.2482160602877785e-01	   5.6539306524585853e-01	   9.0676415518160669e-01	  -4.2163819428247612e-01	  -7.4135709290273133e-01	   6.7111076641848844e-01	
  -8.2711743756899159e-01	   5.6202913133511612e-01	   3.6824651106138956e-01	  -9.2972818989805506e-01	   2.1795121632335590e-01	   9.7595966479315610e-01	   7.8499562245269017e-01	  -6.1950130970815021e-01	   2.3243625453977318e-01	  -9.7261163244921234e-01	  -4.2007273782664784e-01	  -9.0749043793024309e-01	  -8.9194677515104359e-01	  -4.5214040993661886e-01	  -3.0110578478970634e-01	   9.5359074364539376e-01	  -9.9746135070218311e-01	  -7.1209928067485190e-02	
   4.4497936181664904e-01	   8.9554082405954438e-01	  -6.0398673511449541e-01	   7.9699436874154406e-01	  -9.8250262569058833e-01	  -1.8624873291139388e-01	  -6.2632869694309523e-01	  -7.7955908267787144e-01	  -2.1542472677112884e-01	   9.7652044888757172e-01	   8.9618207375886250e-01	  -4.4368647790220606e-01	  -9.0718437419116893e-01	  -4.2073330177605039e-01	   4.1942363945125138e-01	  -9.0779062050093173e-01	  -9.7683032715763540e-01	  -2.1401521428418827e-01	
   9.9641365173916019e-01	   8.4615806016556341e-02	   9.8568033074433703e-01	   1.6862468853561863e-01	   9.6787702386969598e-01	   2.5142407733775218e-01	  -9.8725402028949016e-01	  -1.5915244083028990e-01	   9.4934100115552211e-01	   3.1424777409717780e-01	  -8.8722741974338737e-01	  -4.6133231585863477e-01	   8.0249667294993821e-01	   5.9665659294461837e-01	  -9.7024657149046067e-01	  -2.4211895942079056e-01	  -9.9718019561117521e-01	   7.5044370081029030e-02	
  -4.9999999999989658e-01	  -8.6602540378449833e-01	  -5.0000000000020683e-01	   8.6602540378431925e-01	   1.0000000000000000e+00	   3.5833422283919165e-13	   9.4654813022175510e-01	   3.2256260969569817e-01	   7.9190672565260134e-01	   6.1064207017382577e-01	   5.5260753073124935e-01	   8.3344160981985493e-01	   2.5423252426764903e-01	   9.6714312467416075e-01	  -1.9392665080328111e-01	  -9.8101603152457317e-01	  -7.5262147941827817e-01	  -6.5845342182894173e-01	
  -2.8348121892684081e-01	   9.5897778833284375e-01	  -8.3927679703150504e-01	  -5.4370438472072102e-01	   7.5931963780585265e-01	  -6.5071782489984764e-01	   6.4341228759619518e-01	  -7.6551984178741639e-01	  -1.7204125634046216e-01	  -9.8508974520943793e-01	  -8.6479920420207501e-01	  -5.0211785111809926e-01	  -9.4080361223359077e-01	   3.3895215474787499e-01	   5.5172122524192879e-01	   8.3402859040775390e-01	  -9.1651182436248146e-01	   4.0000759468259589e-01	
   5.6991338498529753e-01	   8.2170477278314513e-01	  -3.5039746722920012e-01	   9.3660109703083394e-01	  -9.6930579826303409e-01	   2.4585823039642635e-01	  -8.3130754577619759e-01	  -5.5581270616598455e-01	   3.8214447132888973e-01	   9.2410259334814304e-01	   1.9594838059147482e-01	  -9.8061421167734386e-01	  -7.0793120606552673e-01	   7.0628139397736422e-01	  -1.7059343947027922e-02	  -9.9985447880383926e-01	  -9.3048725080723826e-01	  -3.6632427722604971e-01	
   9.8740428641437328e-01	  -1.5821749325065906e-01	   9.4993444965895535e-01	  -3.1244926204287587e-01	   8.8853440839748943e-01	  -4.5880998800562683e-01	  -8.4594796888914170e-01	   5.3326544415734989e-01	   4.3125593213532859e-01	  -9.0222963872735240e-01	   1.1630780916659218e-01	   9.9321321654862582e-01	  -6.2803664199617770e-01	  -7.7818376769897024e-01	  -7.5092072875289617e-01	   6.6039235241575844e-01	  -9.1966457237644661e-01	  -3.9270481829950538e-01	
  -8.6435307872162026e-01	  -5.0288542960047711e-01	   4.9421248939108708e-01	   8.6934113863883411e-01	   1.0004905225894959e-02	  -9.9994994968319328e-01	   7.0006356097360645e-01	   7.1408053509177360e-01	  -1.9822021193907330e-02	   9.9980352443657061e-01	  -7.2781691045900854e-01	   6.8577149609028187e-01	  -9.9921417495157661e-01	  -3.9636253302249895e-02	  -2.4600139756939274e-01	  -9.6926947356960824e-01	  -9.6420279088732264e-01	   2.6516594435390461e-01	
   5.2775347130367412e-02	   9.9860641032153863e-01	  -9.9442952547053842e-01	   1.0540359990265863e-01	  -1.5773807393715561e-01	  -9.8748098717423238e-01	   6.8367472232370152e-01	  -7.2978686892517441e-01	  -6.5177748111219347e-02	  -9.9787366993580429e-01	  -7.7279548000694553e-01	  -6.3465513948981345e-01	  -9.9150372230230088e-01	   1.3007831741178777e-01	   7.6485101627205465e-01	   6.4420720494853612e-01	  -6.9268867468227258e-01	   7.2123671562595637e-01	
   9.9641365173917706e-01	  -8.4615806016358666e-02	   9.8568033074440398e-01	  -1.6862468853522752e-01	   9.6787702386984587e-01	  -2.5142407733717526e-01	  -4.6157354728343064e-01	  -8.8710194478886728e-01	  -5.7389972089638119e-01	   8.1892558291645512e-01	   9.9136740720165761e-01	   1.3111317225306857e-01	  -3.4127822071011149e-01	  -9.3996232694131976e-01	  -5.3498102987187890e-01	  -8.4486407053278334e-01	  -3.8485533771789954e-01	   9.2297690601121840e-01	
  -3.2493513699751349e-02	  -9.9947194636340042e-01	  -9.9788834313488817e-01	   6.4952710763352600e-02	   9.7343310796702678e-02	   9.9525086276935049e-01	  -9.8853532436044356e-01	   1.5098977611610878e-01	   9.5440417501681474e-01	  -2.9851745461609669e-01	  -8.9838915708197331e-01	   4.3920032153624544e-01	   8.2177465857905330e-01	  -5.6981261000199035e-01	   1.8303103152053551e-01	   9.8310713632875679e-01	  -1.1878905931094709e-01	   9.9291951304625914e-01	
  -9.5781732418796017e-01	   2.8737775398491811e-01	   8.3482805302916785e-01	  -5.5051078270596032e-01	  -6.4140821963092343e-01	   7.6719977567116704e-01	   9.7094407798287574e-01	  -2.3930649266157278e-01	   8.8546480514003323e-01	  -4.6470644374521319e-01	   7.4852953964307689e-01	  -6.6310144644822144e-01	   5.6809584228335408e-01	  -8.2296240131634602e-01	  -8.6121569633461326e-01	   5.0823963283758899e-01	  -9.9875842108479518e-01	   4.9815823913762630e-02	
   2.7366299007223038e-01	   9.6182564317277708e-01	  -8.5021713572945268e-01	   5.2643216287761663e-01	  -7.3900891722096906e-01	  -6.7369564364621715e-01	  -9.4432489715411894e-01	  -3.2901442007131343e-01	   7.8349902277027461e-01	   6.2139301679213033e-01	  -5.3543037104166635e-01	  -8.4457937327771837e-01	   2.2774143736395058e-01	   9.7372164282581386e-01	   5.8027731243361240e-02	  -9.9831497154292359e-01	  -5.7488128115305692e-01	  -8.1823683159573057e-01	
   9.7943560792119777e-01	   2.0175700715472999e-01	   9.1858822012793251e-01	   3.9521599390990880e-01	   8.1996041569930744e-01	   5.7242022735593390e-01	   0.0000000000000000e+00	   0.0000000000000000e+00	   0.0000000000000000e+00	   0.0000000000000000e+00	   0.0000000000000000e+00	   0.0000000000000000e+00	   0.0000000000000000e+00	   0.0000000000000000e+00	   0.0000000000000000e+00	   0.0000000000000000e+00	   0.0000000000000000e+00	   0.0000000000000000e+00	
   3.3460281418446264e-01	  -9.4235925036041213e-01	  -7.7608191347967592e-01	  -6.3063211428670907e-01	  -8.5396119876038667e-01	   5.2033669004955185e-01	   6.4435856313538609e-01	   7.6472350697104940e-01	  -1.6960408422820120e-01	   9.8551228029543758e-01	  -8.6293025116573963e-01	   5.0532304679584283e-01	  -9.4246890922622650e-01	  -3.3429381559030807e-01	   9.3624845933118062e-01	  -3.5133861501404967e-01	  -5.0504008219326690e-01	  -8.6309589002509923e-01	
  -9.9980316116239498e-01	  -1.9840335926641792e-02	   9.9921272214063606e-01	   3.9672861155960595e-02	  -9.9822891537738445e-01	  -5.9489768065531037e-02	   8.1713458374590486e-01	  -5.7644693775438416e-01	   3.3541785590718642e-01	  -9.4206945706706036e-01	  -2.6897152361058124e-01	  -9.6314812956606133e-01	  -7.7498972387725185e-01	  -6.3197383481016123e-01	  -8.2841064081320415e-01	   5.6012124597042057e-01	  -8.0553683903534257e-01	  -5.9254569524801093e-01	
  -5.7088810862664714e-02	   9.9836910392614153e-01	  -9.9348173534857376e-01	  -1.1399140989033510e-01	   1.7052219263231824e-01	  -9.8535383584774594e-01	  -3.3343393428273604e-01	  -9.4277346773694060e-01	  -7.7764362293747213e-01	   6.2870533296981235e-01	   8.5201947961457969e-01	   5.2351008238361640e-01	   2.0945920859063472e-01	  -9.7781738578150934e-01	   9.6027124899933169e-01	  -2.7906832200245063e-01	  -9.2220055538040924e-01	  -3.8671195437439565e-01	
   7.0451899746211233e-01	   7.0968512892336988e-01	  -7.3059644299603510e-03	   9.9997331108572496e-01	  -7.1481337893349151e-01	   6.9931526030659785e-01	  -9.1669699604898192e-01	  -3.9958305448901704e-01	   6.8066676513045443e-01	   7.3259317144431724e-01	  -3.3123336176194829e-01	  -9.4354886468898802e-01	  -7.3385509693685513e-02	   9.9730364832732765e-01	  -3.6225229709232687e-01	  -9.3208007877613852e-01	  -9.2940860017359084e-01	  -3.6905237287323656e-01	
   5.6229809859504798e-01	  -8.2693460945614905e-01	  -3.6764169663278751e-01	  -9.2996751711926229e-01	  -9.7574655255679565e-01	  -2.1890332380648872e-01	   9.6479066911365918e-01	   2.6301894378773916e-01	   8.6164207041756424e-01	   5.0751644553308151e-01	   6.9781779019562173e-01	   7.1627531835635605e-01	   4.8485411502693349e-01	   8.7459504180017456e-01	   7.5999942634553774e-01	  -6.4992374318411661e-01	   3.2500049122417130e-01	  -9.4571384715676410e-01	
  -9.9691733373312630e-01	   7.8459095727865871e-02	   9.8768834059513111e-01	  -1.5643446504027234e-01	  -9.7236992039766212e-01	   2.3344536385596579e-01	   1.9664503963141339e-01	  -9.8047474643070731e-01	  -9.2266145677671974e-01	  -3.8561099073893290e-01	  -5.5951863709988392e-01	   8.2881776931837581e-01	   7.0260832764267722e-01	   7.1157679692859599e-01	  -1.1911168661223170e-01	   9.9288086199321490e-01	  -2.7296601059015546e-01	  -9.6202367801551281e-01	
   4.7100491468077871e-01	   8.8213058576752246e-01	  -5.5630874069310476e-01	   8.3097568257347454e-01	  -9.9505321657343315e-01	  -9.9343324822879997e-02	  -9.2090330566180201e-01	  -3.8979109997685379e-01	   6.9612579675766872e-01	   7.1791982497246931e-01	  -3.6122578911938286e-01	  -9.3247838005772510e-01	  -3.0817750177001814e-02	   9.9952502033417245e-01	  -8.9903331562934730e-02	  -9.9595049624661813e-01	  -7.7759663426203307e-01	  -6.2876344867076828e-01	
   7.7477142449034542e-01	  -6.3224144105966429e-01	   2.0054152041359818e-01	  -9.7968520382324975e-01	  -4.6402374560974075e-01	  -8.8582276077684219e-01	  -6.8016538930617643e-01	   7.3305869014013980e-01	  -7.4750086379954950e-02	  -9.9720229872688781e-01	   7.8185023251276120e-01	   6.2346628932103565e-01	  -9.8882484917237856e-01	   1.4908191593624903e-01	  -6.3502624926264822e-02	   9.9798167148874739e-01	  -9.9044279019728854e-01	  -1.3792417970105833e-01	
  -9.9968918200081902e-01	  -2.4930691737961863e-02	   9.9875692121893345e-01	   4.9845885660475348e-02	  -9.9720379718120500e-01	  -7.4730093586092047e-02	   7.6492128792135372e-01	  -6.4412376394970672e-01	   1.7020915343052498e-01	  -9.8540795820231941e-01	  -5.0452807820519274e-01	  -8.6339528508243246e-01	  -9.4205768817692803e-01	  -3.3545090869863786e-01	  -7.8074198761723690e-01	   6.2485354185719888e-01	  -7.4862508561698526e-01	  -6.6299357552314298e-01	
   6.4162426135218675e-01	   7.6701910487566127e-01	  -1.7663661448852136e-01	   9.8427613321772334e-01	  -8.6829293595008383e-01	   4.9605178900915542e-01	  -9.0868791159919327e-01	  -4.1747608232507966e-01	   6.5142744137300657e-01	   7.5871093878117901e-01	  -2.7520057092009326e-01	  -9.6138683461198626e-01	  -1.5128457725243610e-01	   9.8849025118387068e-01	  -2.6282407910751271e-01	  -9.6484377152018130e-01	  -9.0324834105147411e-01	  -4.2911820561211328e-01	
   3.3004526934997924e-01	  -9.4396510538244982e-01	  -7.8214024035939933e-01	  -6.2310243492586437e-01	  -8.4632864194773061e-01	   5.3266108344697949e-01	  -9.7353955044330964e-01	   2.2851858507053310e-01	   8.9555851255472307e-01	  -4.4494376115501605e-01	  -7.7018371297309896e-01	   6.3782211334428596e-01	   6.0405009881845606e-01	  -7.9694634582098023e-01	  -1.0559855291096613e-01	   9.9440884228928184e-01	  -5.3702569338687389e-01	   8.4356588636712138e-01	
  -9.5575483505343306e-01	   2.9416440177558029e-01	   8.2693460945602992e-01	  -5.6229809859522306e-01	  -6.2493866746781357e-01	   7.8067385117189203e-01	   9.8322116327957609e-01	  -1.8241749937754653e-01	   9.3344771184168562e-01	  -3.5871349188108531e-01	   8.5234992691570477e-01	  -5.2297189416525314e-01	   7.4264926148495713e-01	  -6.6968057640628031e-01	  -8.8605764615352256e-01	   4.6357507233767337e-01	  -9.9337911530910905e-01	   1.1488225828077993e-01	
   7.5055293872798334e-01	   6.6081032540872731e-01	   1.2665942766642393e-01	   9.9194626335463043e-01	  -5.6042372742270552e-01	   8.2820604063339276e-01	   6.0564379771209466e-02	  -9.9816429304144549e-01	  -9.9266391180585745e-01	  -1.2090640263564584e-01	  -1.8080452805077724e-01	   9.8351905046945365e-01	   9.7076328360341424e-01	   2.4003884520534846e-01	   7.0505404451560838e-01	  -7.0915357597080653e-01	  -6.1414049807657056e-01	   7.8919671098038791e-01	
   4.2577929156493360e-01	  -9.0482705246608497e-01	  -6.3742398974892656e-01	  -7.7051324277559330e-01	  -9.6858316112851650e-01	   2.4868988716530133e-01	  -7.4710864554573386e-01	  -6.6470194203930166e-01	   1.1634265649836185e-01	   9.9320913521720300e-01	   5.7326743651436718e-01	  -8.1936832147224614e-01	  -9.7292877255780841e-01	   2.3110517849922016e-01	  -9.1954368880640303e-01	   3.9298779163774678e-01	   2.8333690916140408e-01	   9.5902043560440475e-01	
  -9.9393067731793938e-01	   1.1000822099417079e-01	   9.7579638262739532e-01	  -2.1868109120655546e-01	  -9.4581724170054482e-01	   3.2469946920494513e-01	  -9.2900168311133446e-01	   3.7007549604953277e-01	   7.2608825444738456e-01	  -6.8760151741655584e-01	  -4.2007273782664695e-01	   9.0749043793024353e-01	   5.4408306492899683e-02	  -9.9851877107271980e-01	   8.8265192517040969e-01	  -4.7002721090695315e-01	   9.6407461907829872e-01	   2.6563156598761617e-01	
   8.0826107855477791e-01	   5.8882427675280780e-01	   3.0657194221306577e-01	   9.5184749001492286e-01	  -3.1268074121924688e-01	   9.4985828104543168e-01	   8.5475825864772648e-01	  -5.1902631847865510e-01	   4.6122336145298748e-01	  -8.8728406435031104e-01	  -6.6289304081312603e-02	  -9.9780044506124332e-01	  -5.7454602170001379e-01	  -8.1847227744663864e-01	   9.9648312863208177e-01	   8.3793641474863872e-02	   3.8525253544434845e-01	   9.2281118541861051e-01	
  -1.7219136640512148e-01	  -9.8506351741171350e-01	  -9.4070026667107443e-01	   3.3923886611791620e-01	   4.9615229499663038e-01	   8.6823550962257745e-01	  -1.8978599719675923e-01	  -9.8182548106475198e-01	  -9.2796255053606336e-01	   3.7267345599412360e-01	   5.4201459322622902e-01	   8.4036907411553741e-01	   7.2222899039479205e-01	  -6.9165402148279265e-01	  -9.3448095168022383e-01	   3.5601313311003463e-01	   9.9983997204396080e-01	   1.7889390798223881e-02	
  -9.1172390988061958e-01	   4.1080349578843162e-01	   6.6248097569600806e-01	  -7.4907873874571096e-01	  -2.9627558088556488e-01	   9.5510249720693385e-01	   5.4617999386810134e-01	   8.3766784246396897e-01	  -4.0337482859648155e-01	   9.1503483412095254e-01	  -9.8681051668684683e-01	   1.6187959771459304e-01	  -6.7457749530951827e-01	  -7.3820403874669827e-01	  -8.4208223750174982e-01	  -5.3934914970179249e-01	  -1.5384848151424652e-01	   9.8809445132323281e-01	
  -9.5909467314436547e-01	  -2.8308551348683109e-01	   8.3972518410779440e-01	   5.4301161605911419e-01	  -6.5165722882154919e-01	  -7.5851358334878827e-01	  -9.9993863677929251e-01	  -1.1078026718238905e-02	   9.9975455464805996e-01	   2.2154693869680785e-02	  -9.9944777619804714e-01	  -3.3228642054383403e-02	   9.9901833907908144e-01	   4.4298512206093633e-02	   9.5589979112430434e-01	   2.9369301886240223e-01	   9.6217184888821139e-01	   2.7244326603357399e-01	
   8.1556086895921764e-01	  -5.7867129617986568e-01	   3.3027906195502832e-01	  -9.4388333030841609e-01	  -2.7683551142505958e-01	  -9.6091732194503898e-01	   0.0000000000000000e+00	   0.0000000000000000e+00	   0.0000000000000000e+00	   0.0000000000000000e+00	   0.0000000000000000e+00	   0.0000000000000000e+00	   0.0000000000000000e+00	   0.0000000000000000e+00	   0.0000000000000000e+00	   0.0000000000000000e+00	   0.0000000000000000e+00	   0.0000000000000000e+00	
  -2.4983318097529761e-01	   9.6828889371084093e-01	  -8.7516676336752841e-01	  -4.8382138883766246e-01	   6.8712457372722813e-01	  -7.2653962051644161e-01	   4.7242429315107837e-01	   8.8137125392237747e-01	  -5.5363057448140796e-01	   8.3276238327591756e-01	  -9.9552135878348758e-01	  -9.4536893358511967e-02	  -3.8698637399877239e-01	  -9.2208543331910531e-01	  -9.7144926033697598e-01	   2.3724741218976914e-01	   7.3539473248109510e-01	   6.7763898016499802e-01	
   9.9641365173917684e-01	  -8.4615806016361317e-02	   9.8568033074440298e-01	  -1.6862468853523280e-01	   9.6787702386984409e-01	  -2.5142407733718214e-01	   4.9049012693553884e-01	   8.7144674844694847e-01	  -5.1883887075751800e-01	   8.5487205252661258e-01	  -9.9946081408943210e-01	  -3.2834145332102799e-02	  -4.6161245238212700e-01	  -8.8708170075013870e-01	   5.6246922754202877e-01	   8.2681821948253742e-01	   4.1499288950167718e-01	  -9.0982465434997351e-01	
   9.9073070957198961e-01	  -1.3584057240376268e-01	   9.6309467777803626e-01	  -2.6916285337249007e-01	   9.1760423742809105e-01	  -3.9749523702053519e-01	   0.0000000000000000e+00	   0.0000000000000000e+00	   0.0000000000000000e+00	   0.0000000000000000e+00	   0.0000000000000000e+00	   0.0000000000000000e+00	   0.0000000000000000e+00	   0.0000000000000000e+00	   0.0000000000000000e+00	   0.0000000000000000e+00	   0.0000000000000000e+00	   0.0000000000000000e+00	
   3.7761529435794561e-01	  -9.2596257454983677e-01	  -7.1481337893392416e-01	  -6.9931526030615554e-01	  -9.1746422335220867e-01	   3.9781829881081215e-01	  -4.0855319783531990e-01	   9.1273450933912537e-01	  -6.6616856907706790e-01	  -7.4580120513030268e-01	   9.5288379622295039e-01	  -3.0333557472828448e-01	  -1.1243887514762363e-01	   9.9365864327521303e-01	   6.9088206008667408e-01	   7.2296748132291067e-01	  -9.9943393220960286e-01	   3.3642460493412955e-02	
  -5.9063731686092458e-01	  -8.0693714744788381e-01	  -3.0229511986265567e-01	   9.5321438328805275e-01	   9.4773087385258525e-01	  -3.1907082402910969e-01	   9.2353846522630390e-01	  -3.8350580601529755e-01	   7.0584659350511392e-01	  -7.0836472698548902e-01	   3.8021449407555163e-01	  -9.2489833954595913e-01	  -3.5611728744528266e-03	  -9.9999365900377502e-01	  -8.5494136225480566e-01	  -5.1872465442264959e-01	  -2.3601119998343473e-01	  -9.7175033495357188e-01	
  -9.8623589094933617e-01	  -1.6534439029906353e-01	   9.4532246519326191e-01	   3.2613714416014339e-01	  -8.7838599643926296e-01	  -4.7795192358583832e-01	   1.5635476134248488e-01	  -9.8770096112413219e-01	  -9.5110637721106916e-01	  -3.0886349610861324e-01	  -4.5377478258278914e-01	   8.9111640468119679e-01	   8.0920668154312925e-01	   5.8752408167321668e-01	  -3.1751349057164552e-01	   9.4825375470124529e-01	   9.1081358580922984e-03	  -9.9995852007030295e-01	
  -6.7728157162569391e-01	   7.3572391067317511e-01	  -8.2579345472460194e-02	  -9.9658449300665930e-01	   7.8914050939651159e-01	   6.1421271268951627e-01	  -8.1321246583241535e-01	  -5.8196691092772845e-01	   3.2262902917047465e-01	   9.4652549333682345e-01	   2.8848056911073627e-01	  -9.5748574989163449e-01	  -7.9182101907303404e-01	   6.1075320200072791e-01	   9.7894078851472000e-01	  -2.0414439150311783e-01	   1.2260684533444842e-01	  -9.9245531963768252e-01	
   7.6399615095505413e-01	   6.4522080044420627e-01	   1.6738023734827562e-01	   9.8589241611102518e-01	  -5.0824043679500208e-01	   8.6121522188499755e-01	   9.9516202425040556e-01	   9.8247368869782817e-02	   9.8069490902032963e-01	   1.9554410096345870e-01	   9.5673863741507159e-01	   2.9094875782025970e-01	   9.2352500915678537e-01	   3.8353820860764259e-01	   6.9690871012025157e-01	   7.1715984951649869e-01	   8.2369120208764857e-01	   5.6703862620054779e-01	
   9.9988810181027366e-01	   1.4959407015249560e-02	   9.9955243228350421e-01	   2.9915466169370349e-02	   9.9899306654131659e-01	   4.4864830350472791e-02	   9.9994008566817405e-01	  -1.0946463991843786e-02	   9.9976034985215056e-01	  -2.1891616283535715e-02	   9.9946081408943210e-01	  -3.2834145332104096e-02	   9.9904151427298882e-01	  -4.3772739908913408e-02	   9.9999194679298475e-01	   4.0132716300349761e-03	   9.9966444157252121e-01	   2.5903749834713365e-02	
   9.1275680394373004e-01	  -4.0850338658868823e-01	   6.6624996629114552e-01	  -7.4572849108576200e-01	   3.0349157577531760e-01	  -9.5283412167775283e-01	  -1.6775390568000864e-01	  -9.8582890357764552e-01	  -9.4371725425820552e-01	   3.3075329781478136e-01	   4.8437841619886335e-01	   8.7485858852770071e-01	   7.8120451196929308e-01	  -6.2427518810122395e-01	  -5.5583296450604491e-01	  -8.3129400068111992e-01	   2.4959592691091897e-01	   9.6835007784864624e-01	
  -9.2901771345868056e-01	  -3.7003525248279373e-01	   7.2614782383999010e-01	   6.8753860832134117e-01	  -4.2019066841496749e-01	  -9.0743583915171810e-01	  -8.1627411561906749e-01	  -5.7766475413539742e-01	   3.3260686365938158e-01	   9.4306557261235524e-01	   2.7327736865428098e-01	  -9.6193527837448201e-01	  -7.7874534849333910e-01	   6.2734016466346854e-01	   5.4457678930102960e-01	   8.3871098750080886e-01	   9.7208943559483552e-01	  -2.3461059056426703e-01	
   1.5643446504029057e-01	   9.8768834059512822e-01	  -9.5105651629511623e-01	   3.0901699437506241e-01	  -4.5399049973970840e-01	  -8.9100652418828552e-01	  -9.9688220527336724e-01	  -7.8904174853476880e-02	   9.8754826238138393e-01	   1.5731633566641881e-01	  -9.7205637395990452e-01	  -2.3474753639585283e-01	   9.5050314106498124e-01	   3.1071494786315684e-01	  -7.8014000963065919e-02	  -9.9695226347791333e-01	  -2.3387946801718276e-01	  -9.7226559871261498e-01	
   9.9744049867117268e-01	   7.1501409850452086e-02	   9.8977509677879538e-01	   1.4263680379385368e-01	   9.7704303353552702e-01	   2.1304203955955517e-01	   2.6930943258969836e-01	   9.6305370022559733e-01	  -8.5494485903642947e-01	   5.1871889112233016e-01	  -7.2979886235485925e-01	  -6.8366191974217283e-01	   4.6186142398564045e-01	  -8.8695209850022705e-01	   1.9976043741129443e-01	   9.7984476711632662e-01	   3.3747983206694415e-01	  -9.4133275888394918e-01	
   1.4840461133039690e-01	  -9.8892672698025197e-01	  -9.5595214267174766e-01	  -2.9352257310349161e-01	  -4.3214002369771937e-01	   9.0180652022400820e-01	   9.8308006570458895e-01	  -1.8317637515318708e-01	   9.3289283117147770e-01	  -3.6015408584224717e-01	   8.5113662582220373e-01	  -5.2494422959395792e-01	   7.4057806890227051e-01	  -6.7197032959869873e-01	  -3.5254398082798379e-02	  -9.9937837049628986e-01	   3.2704162819789862e-01	  -9.4500993297725044e-01	
  -9.7415389500088556e-01	  -2.2588534448831246e-01	   8.9795162229079284e-01	   4.4009417631381281e-01	  -7.7533224575299386e-01	  -6.3155356755830239e-01	   2.2838195425040489e-01	  -9.7357161163047778e-01	  -8.9568336594553200e-01	  -4.4469237453376947e-01	  -6.3749778925884715e-01	   7.7045218455792730e-01	   6.0449738406303544e-01	   7.9660712566543557e-01	  -4.4239472915813760e-01	   8.9682044112135295e-01	  -2.5636114037539191e-03	  -9.9999671394288614e-01	
   9.4647549513760088e-02	   9.9551084442663929e-01	  -9.8208368274208069e-01	   1.8844532387871091e-01	  -2.8055117749173392e-01	  -9.5983906818174558e-01	  -2.2048398003275063e-01	  -9.7539059588911237e-01	  -9.0277362909783521e-01	   4.3011600133629557e-01	   6.1857822565695253e-01	   7.8572322018831564e-01	   6.3000045078895150e-01	  -7.7659476691883378e-01	   9.5014364734223244e-01	  -3.1181252286462058e-01	  -9.9188018417651369e-01	  -1.2717586342527915e-01	
   9.9624697128286810e-01	   8.6556179500439145e-02	   9.8501605558057548e-01	   1.7246266334625754e-01	   9.6639155279142308e-01	   2.5707463253573282e-01	  -9.9926848185404515e-01	  -3.8242661689685535e-02	   9.9707499765377650e-01	   7.6429372977419835e-02	  -9.9342275654618462e-01	  -1.1450426531872071e-01	   9.8831710189255695e-01	   1.5241163376428099e-01	  -9.9220805985573512e-01	  -1.2459199796663445e-01	  -9.9882833723530917e-01	  -4.8393726202345277e-02	
   1.4840461133039690e-01	  -9.8892672698025197e-01	  -9.5595214267174766e-01	  -2.9352257310349161e-01	  -4.3214002369771937e-01	   9.0180652022400820e-01	   9.7558939452294224e-01	   2.1960267141899467e-01	   9.0354933341128207e-01	   4.2848407449055526e-01	   7.8739689968569937e-01	   6.1644636617093351e-01	   6.3280279581594456e-01	   7.7431299976658274e-01	   3.6195291599474100e-01	  -9.3219637770316610e-01	  -7.2388986170272090e-02	  -9.9737647590127176e-01	
  -7.5759628243330968e-01	  -6.5272342752748580e-01	   1.4790425431354212e-01	   9.8900168430390201e-01	   5.3349285598528862e-01	  -8.4580457117035024e-01	  -1.1282236010951913e-01	  -9.9361517453152759e-01	  -9.7454223011863594e-01	   2.2420401806255741e-01	   3.3272266896627550e-01	   9.4302472160381789e-01	   8.9946511656920891e-01	  -4.3699256752848725e-01	  -5.6308210176921547e-01	   8.2640095998683527e-01	   7.3402970295786341e-01	  -6.7911736480198381e-01	
  -9.7904779240741246e-01	  -2.0363059736241046e-01	   9.1706915963565572e-01	   3.9872817362854129e-01	  -8.1666128004500638e-01	  -5.7711727896091591e-01	   6.3203501240726512e-01	  -7.7493983191687088e-01	  -2.0106348618269632e-01	  -9.7957821256092703e-01	  -8.8619333837552294e-01	  -4.6331562354279177e-01	  -9.1914694904812133e-01	   3.9391482081222862e-01	  -7.7659394451468344e-01	   6.3000146455633321e-01	  -4.6099102272836617e-01	  -8.8740479881723366e-01	
   2.7781550062200633e-01	  -9.6063445056594965e-01	  -8.4563709522828800e-01	  -5.3375828159745065e-01	  -7.4767768653277800e-01	   6.6406180213967514e-01	  -9.9562359308128923e-01	  -9.3454057696300677e-02	   9.8253267820019297e-01	   1.8609012942323397e-01	  -9.6084183769762754e-01	  -2.7709738889034313e-01	   9.3074092746248804e-01	   3.6567926649766119e-01	  -3.6637485431120342e-01	   9.3046733748608523e-01	  -1.8682447957471474e-01	   9.8239330913419654e-01	
  -2.1714371450535515e-02	  -9.9976421523902737e-01	  -9.9905697214501632e-01	   4.3418503065306757e-02	   6.5102159837343021e-02	   9.9787860423225483e-01	  -5.1898883093075787e-01	   8.5478102071181083e-01	  -4.6130118673825043e-01	  -8.8724360528204527e-01	   9.9780915815526949e-01	   6.6158022200428115e-02	  -5.7440243022776361e-01	   8.1857305608506270e-01	   8.6584899262666803e-01	   5.0030542868070527e-01	  -8.4330996011964876e-01	   5.3742749386591349e-01	
  -9.3378647087018762e-01	  -3.5783072369459884e-01	   7.4391434636039933e-01	   6.6827497729540930e-01	  -4.5552783336497182e-01	  -8.9022154154447108e-01	   9.2214991420215286e-01	  -3.8683269734726672e-01	   7.0072092852607593e-01	  -7.1343547733873880e-01	   3.7018957403779312e-01	  -9.2895623108611380e-01	  -1.7980360651107988e-02	  -9.9983834024849039e-01	  -9.9951173803658078e-01	   3.1245568119230963e-02	  -7.2267048995556848e-01	  -6.9119271042696817e-01	
  -8.4932133907074303e-01	   5.2787618150384463e-01	   4.4269347400184006e-01	  -8.9667301067679195e-01	   9.7343310796499119e-02	   9.9525086276937036e-01	   1.9278207209758585e-01	  -9.8124159750683282e-01	  -9.2567014535552239e-01	  -3.7833157679142515e-01	  -5.4968728949860801e-01	   8.3537050687923708e-01	   7.1373043600502795e-01	   7.0042049136220497e-01	   3.5424014000188520e-01	   9.3515449162769082e-01	  -6.8170799524739356e-01	  -7.3162436346514581e-01	
  -7.1791192306446994e-01	   6.9613394596289768e-01	   3.0795058556250868e-02	  -9.9952571971336335e-01	   6.7369564364646795e-01	   7.3900891722074047e-01	  -7.7195421537752817e-01	  -6.3567813346131774e-01	   1.9182662127827016e-01	   9.8142882949756638e-01	   4.7579147754275031e-01	  -8.7955811058604105e-01	  -9.2640509473792620e-01	   3.7652835277521129e-01	   9.9671226268816193e-01	  -8.1022622810203823e-02	   1.1167800787064860e-01	  -9.9374444529669870e-01	
  -2.3876995502352710e-01	   9.7107616002971819e-01	  -8.8597781715612567e-01	  -4.6372762210943042e-01	   6.6185972213194899e-01	  -7.4962771308124632e-01	  -8.9712960579207424e-01	   4.4176743928379053e-01	   6.0968305917728494e-01	  -7.9264529731288214e-01	  -1.9679983928357278e-01	   9.8044368693870432e-01	  -2.5657313470445453e-01	  -9.6652481941641299e-01	  -2.1478223294061702e-01	  -9.7666196425019158e-01	   6.4319742419111314e-01	  -7.6570038103289284e-01	
   9.6708423522886644e-01	   2.5445644415459112e-01	   8.7050383605640291e-01	   4.9216163138859897e-01	   7.1661683788393549e-01	   6.9746706564627792e-01	   8.9258834952182298e-01	  -4.5087252998814192e-01	   5.9342792340418415e-01	  -8.0488713477368845e-01	   1.6678535190118313e-01	  -9.8599322836984971e-01	  -2.9568659944839559e-01	  -9.5528500192698729e-01	   9.7793554211927514e-01	  -2.0890685833614808e-01	   7.4848070062374150e-01	   6.6315657336242473e-01	
   5.7175058482069352e-01	  -8.2042749146843863e-01	  -3.4620253751438984e-01	  -9.3815979610010869e-01	  -9.6763359140121474e-01	  -2.5235933268256000e-01	  -3.2485316150624083e-01	  -9.4576446510714296e-01	  -7.8894084691880040e-01	   6.1446915306062844e-01	   8.3743301823220828e-01	   5.4653997106752750e-01	   2.4485531987390807e-01	  -9.6955962804226026e-01	  -9.6166615269988731e-01	  -2.7422292163748263e-01	   5.9019618255579853e-01	   8.0725985041779613e-01	
  -6.5083585132721111e-01	  -7.5921847621563077e-01	  -1.5282538925436864e-01	   9.8825320662229610e-01	   8.4976433596677003e-01	  -5.2716275790210598e-01	  -7.3255137735405640e-01	   6.8071174482057739e-01	   7.3263040926650175e-02	  -9.9731265249879386e-01	   6.2521349427412798e-01	   7.8045376966066027e-01	  -9.8926505366835993e-01	  -1.4613231535337037e-01	   9.9357963296591045e-01	   1.1313493251567640e-01	  -4.0038234323613718e-02	   9.9919814841314003e-01	
  -9.0096886790234687e-01	   4.3388373911770828e-01	   6.2348980185847291e-01	  -7.8183148246823764e-01	  -2.2252093395582745e-01	   9.7492791218193475e-01	   9.0480449377677719e-01	  -4.2582722792389632e-01	   6.3734234391730016e-01	  -7.7058077879609865e-01	   2.4853593992441930e-01	  -9.6862267502154076e-01	  -1.8758947330000383e-01	  -9.8224751947104816e-01	  -6.3044117056126991e-01	   7.7623703239496100e-01	  -9.9996019030076766e-01	   8.9228814657858271e-03	
  -1.4751179093900793e-01	   9.8906029721850952e-01	  -9.5648054306793284e-01	  -2.9179611157873969e-01	   4.2969610675153913e-01	  -9.0297356320247268e-01	  -4.6426368101541093e-01	  -8.8569703312702863e-01	  -5.6891846898004161e-01	   8.2239392972796521e-01	   9.9252004622806278e-01	   1.2208176700656084e-01	  -3.5266355130681093e-01	  -9.3575019079862776e-01	   9.4449213788469066e-01	  -3.2853401874692756e-01	  -8.0752340377565124e-01	  -5.8983552991879562e-01	
   5.2328617922618803e-01	   8.5215701289777457e-01	  -4.5234314926171576e-01	   8.9184397476015564e-01	  -9.9669601577879696e-01	   8.1222239138503030e-02	  -9.7971202882115949e-01	  -2.0041043032518935e-01	   9.1967131883374487e-01	   3.9268901858162580e-01	  -8.2231407842532023e-01	  -5.6903387985559906e-01	   6.9159066937079916e-01	   7.2228965522098543e-01	  -3.4188861064429032e-01	  -9.3974048434220225e-01	  -6.8345091796323221e-01	  -7.2999646761831327e-01	
   9.4324264694761861e-01	  -3.3210436458928100e-01	   7.7941338204149979e-01	  -6.2650999983610078e-01	   5.2710923613882243e-01	  -8.4979753657982970e-01	  -5.5799829371342591e-01	   8.2984209595133529e-01	  -3.7727580842581043e-01	  -9.2610094718483638e-01	   9.7903680843533714e-01	   2.0368340071971733e-01	  -7.1532592875330236e-01	   6.9879096706613586e-01	  -2.5073360556915208e-01	   9.6805612390929729e-01	  -8.0192196953986206e-01	  -5.9742878635809693e-01	
  -4.9173292464572788e-01	  -8.7074607711970708e-01	  -5.1639746163871780e-01	   8.5634903025173614e-01	   9.9959219282820144e-01	   2.8556050793269772e-02	   5.2145337999834629e-01	   8.5327977386570009e-01	  -4.5617274497660043e-01	   8.8989124433298783e-01	  -9.9719901946069023e-01	   7.4793820511041512e-02	  -5.8381285348102696e-01	  -8.1188826331604336e-01	   4.8657422016616214e-01	  -8.7363924377839797e-01	  -9.9940581139213602e-01	  -3.4467726290346022e-02	
  -9.6341814137259496e-01	  -2.6800277027332120e-01	   8.5634903025165088e-01	   5.1639746163885936e-01	  -6.8662624080994472e-01	  -7.2701059512994981e-01	   9.0670403098447305e-01	  -4.2176747171457851e-01	   6.4422439960698441e-01	  -7.6483653348347613e-01	   2.6153768897993729e-01	  -9.6519326419273854e-01	  -1.6994984590204093e-01	  -9.8545271316175920e-01	  -9.8656996313678247e-01	   1.6333924156885171e-01	  -7.6050026147541905e-01	  -6.4933762581250387e-01	
  -7.9422437193932138e-01	   6.0762459382219758e-01	   2.6158470596481886e-01	  -9.6518052280664013e-01	   3.7871047433164073e-01	   9.2551519524614168e-01	  -3.3597143566849502e-01	  -9.4187217519940059e-01	  -7.7424638882970065e-01	   6.3288429383590172e-01	   8.5622077730101964e-01	   5.1661008557522148e-01	   1.9891494123166398e-01	  -9.8001675809896416e-01	   8.3914140037132801e-01	   5.4391332966093642e-01	  -3.0546799540460290e-01	  -9.5220234392879621e-01	
   7.7006304484034993e-01	   6.3796779461913999e-01	   1.8599418605758158e-01	   9.8255084486899591e-01	  -4.8360854636414219e-01	   8.7528439600141472e-01	  -7.0846997034129544e-01	  -7.0574095893932931e-01	   3.8593977507919422e-03	   9.9999255249676788e-01	   7.0300143552121774e-01	  -7.1118842907847368e-01	  -9.9997021009800235e-01	   7.7187380158294386e-03	  -9.5326539392049298e-02	  -9.9544605624189209e-01	  -9.9580654568589133e-01	   9.1484007176844406e-02	
   8.6168126305058090e-01	  -5.0744989989904976e-01	   4.8498919818488867e-01	  -8.7452014135980816e-01	  -2.5869053334895073e-02	  -9.9966534004113417e-01	  -9.1327125549424915e-01	   4.0735195333759955e-01	   6.6812877222408418e-01	  -7.4404565970532865e-01	  -3.0709434978759248e-01	   9.5167907423066511e-01	  -1.0720788745267562e-01	  -9.9423662619516007e-01	  -5.8023802099722743e-01	   8.1444695283930013e-01	  -9.9365943688692160e-01	   1.1243186152317219e-01	
   1.0681710944086523e-01	  -9.9427868584753354e-01	  -9.7718021026139645e-01	  -2.1241195040179128e-01	  -3.1557624036674292e-01	   9.4890022474230218e-01	   9.7757790810721557e-01	   2.1057405723573938e-01	   9.1131713283855909e-01	   4.1170509274832634e-01	   8.0418908457795257e-01	   5.9437354941625264e-01	   6.6099783321018402e-01	   7.5038780939687566e-01	   3.1379134329919522e-01	  -9.4949196566926597e-01	  -1.0494725050467416e-01	  -9.9447778990358005e-01	
  -8.7310127638816126e-01	   4.8753888170007909e-01	   5.2461167766127259e-01	  -8.5134163980239164e-01	  -4.2976974360222582e-02	   9.9907606300763740e-01	   8.6853180290853738e-01	  -4.9563344049453084e-01	   5.0869498532710877e-01	  -8.6094681130895223e-01	   1.5103742564834956e-02	  -9.9988593197451037e-01	  -4.8245882380610522e-01	  -8.7591865109245703e-01	  -5.1667565239128899e-01	   8.5618121342741216e-01	  -9.9995679901502110e-01	  -9.2951656054488102e-03	
   3.6786019582142199e-01	   9.2988110870703522e-01	  -7.2935775266045022e-01	   6.8413249347922189e-01	  -9.0446356725651289e-01	  -4.2655088266890667e-01	   5.6764159193653435e-02	  -9.9838761522318453e-01	  -9.9355566046207511e-01	  -1.1334526705500172e-01	  -1.6956086255010375e-01	   9.8551971765726987e-01	   9.7430570087246071e-01	   2.2522966333816505e-01	   9.4926305727972349e-01	  -3.1448314435586605e-01	  -9.0750050784649194e-01	   4.2005098292750026e-01	
   8.7222044103998075e-01	   4.8911297491686057e-01	   5.2153699553595700e-01	   8.5322866940072228e-01	   3.7570015490097121e-02	   9.9929399774844729e-01	  -9.7869599792180595e-01	  -2.0531474289938476e-01	   9.1569171269631910e-01	   4.0188143437994478e-01	  -8.1367163117029784e-01	  -5.8132476003406808e-01	   6.7698262540143628e-01	   7.3599899789644996e-01	  -7.5321655025761303e-01	  -6.5777262668647185e-01	  -9.5406075964523007e-01	  -2.9961319547904869e-01	
   8.7630668004388623e-01	  -4.8175367410167408e-01	   5.3582679497907604e-01	  -8.4432792550196467e-01	   6.2790519529455954e-02	  -9.9802672842826257e-01	  -3.7529288907884706e-01	   9.2690627757441157e-01	  -7.1831049481370435e-01	  -6.9572266963244134e-01	   9.1444653078742977e-01	  -4.0470673620639708e-01	   3.1939933919017720e-02	   9.9948979015358075e-01	   1.1766883909661624e-01	   9.9305289099103611e-01	  -7.7541217044214172e-01	  -6.3145543463510312e-01	
  -9.8636130340271599e-01	  -1.6459459028077233e-01	   9.4581724170060932e-01	   3.2469946920475723e-01	  -8.7947375120643367e-01	  -4.7594739303717598e-01	  -8.6019746000850161e-02	   9.9629343232701739e-01	  -9.8520120659589849e-01	  -1.7140181598217047e-01	   2.5551326110307054e-01	  -9.6680555097727594e-01	   9.4124283495602834e-01	   3.3773055183672501e-01	   2.4883105807705871e-01	  -9.6854690363257645e-01	  -7.9137960509520683e-02	   9.9686367333070847e-01	
   1.9598594630085608e-01	   9.8060670447053233e-01	  -9.2317901770511590e-01	   3.8437026584924239e-01	  -5.5784617308092033e-01	  -8.2994436390578130e-01	   6.1390846990420034e-01	   7.8937721691209428e-01	  -2.4623278115976721e-01	   9.6921071882347964e-01	  -9.1623724974829723e-01	   4.0063612190325071e-01	  -8.7873883496465244e-01	  -4.7730290165152506e-01	  -6.5375115884400403e-01	   7.5670960236415774e-01	   8.9438602367657472e-01	   4.4729592067445190e-01	
   8.7146534087134908e-01	   4.9045709257791692e-01	   5.1890368068003323e-01	   8.5483271473237032e-01	   3.2947805055096785e-02	   9.9945707368653469e-01	   8.2532216932563907e-01	  -5.6466212624862766e-01	   3.6231336636075767e-01	  -9.3205634194309062e-01	  -2.2727166232456708e-01	  -9.7383139788375483e-01	  -7.3745804911267077e-01	  -6.7539294177458919e-01	   9.9618221034881593e-01	  -8.7298360720849233e-02	   4.4229712089128304e-01	   8.9686858393595315e-01	
   9.7481608110321905e-01	   2.2301033164981884e-01	   9.0053278395487557e-01	   4.3478811508881121e-01	   7.8089159761650828e-01	   6.2466656127244180e-01	  -6.3327810207075375e-01	  -7.7392431505778647e-01	  -1.9791769087532790e-01	   9.8021864277240622e-01	   8.8395198135826136e-01	  -4.6757768836077274e-01	  -9.2165717527715629e-01	  -3.8800522066092513e-01	  -4.4473655953620073e-01	  -8.9566142744449107e-01	  -7.8992279588199243e-01	   6.1320630830575784e-01	
   4.6796217328946554e-01	  -8.8374849610633011e-01	  -5.6202280874040045e-01	  -8.2712173375843001e-01	  -9.9397300332228034e-01	   1.0962512789723977e-01	  -9.7569137868178557e-01	   2.1914911262890513e-01	   9.0394733286792694e-01	  -4.2764379967557270e-01	  -7.8825586024147554e-01	   6.1534762435144852e-01	   6.3424156119807729e-01	  -7.7313494426847995e-01	  -2.6291395931889244e-01	   9.6481928359421998e-01	  -6.5025935673655499e-01	   7.5971229355365955e-01	
   4.1623536981638523e-02	  -9.9913336505650641e-01	  -9.9653496233827632e-01	  -8.3174929140036880e-02	  -1.2458215669840364e-01	   9.9220929557849558e-01	   8.5186791102490966e-01	   5.2375668221613791e-01	   4.5135787566788699e-01	   8.9234302152959777e-01	  -8.2873329685222097e-02	   9.9656008912001115e-01	  -5.9255213614514457e-01	   8.0553210112932561e-01	   5.5876053187145769e-01	  -8.2932904689437092e-01	  -4.8784502087542470e-01	  -8.7293025815757841e-01	
   2.0791169081768299e-01	  -9.7814760073382190e-01	  -9.1354545764266437e-01	  -4.0673664307565760e-01	  -5.8778525229228440e-01	   8.0901699437508456e-01	   4.3462419213720305e-01	  -9.0061190954210879e-01	  -6.2220362321816725e-01	  -7.8285544722776568e-01	  -9.7547368630927622e-01	   2.2011607691895596e-01	  -2.2572530250836997e-01	   9.7419099144238896e-01	  -7.9056792785340357e-01	  -6.1237435564332343e-01	   9.7129482916843501e-01	  -2.3787886587643875e-01	
  -7.4706852611208463e-01	  -6.6474703255653389e-01	   1.1622276541456486e-01	   9.9322317169878338e-01	   5.7341578599422593e-01	  -8.1926450940622597e-01	  -6.3327810207075375e-01	  -7.7392431505778647e-01	  -1.9791769087532790e-01	   9.8021864277240622e-01	   8.8395198135826136e-01	  -4.6757768836077274e-01	  -9.2165717527715629e-01	  -3.8800522066092513e-01	  -4.1361753524954858e-02	   9.9914423650709250e-01	   9.8756603019106792e-01	  -1.5720475823795776e-01	
  -6.4400225440883729e-01	   7.6502359199983838e-01	  -1.7052219263267043e-01	  -9.8535383584768499e-01	   8.6363560737319289e-01	   5.0411659135277054e-01	  -6.6249062162749917e-01	  -7.4907020782808453e-01	  -1.2221235251121954e-01	   9.9250397525333545e-01	   8.2441969639893320e-01	  -5.6597894323860742e-01	  -9.7012828178734678e-01	  -2.4259249138489469e-01	   9.9970183490552822e-01	  -2.4418052471892052e-02	  -1.4641092719988524e-01	  -9.8922385757545794e-01	
  -7.9402406295135758e-02	   9.9684264449036397e-01	  -9.8739051574908432e-01	  -1.5830340934028289e-01	   2.3620477210208041e-01	  -9.7170330123767934e-01	   0.0000000000000000e+00	   0.0000000000000000e+00	   0.0000000000000000e+00	   0.0000000000000000e+00	   0.0000000000000000e+00	   0.0000000000000000e+00	   0.0000000000000000e+00	   0.0000000000000000e+00	   0.0000000000000000e+00	   0.0000000000000000e+00	   0.0000000000000000e+00	   0.0000000000000000e+00	
   1.4097493417866241e-01	   9.9001316553534868e-01	  -9.6025213586664360e-01	   2.7913408169470999e-01	  -4.1171789747610277e-01	  -9.1131134794748236e-01	  -1.0068244778035547e-01	   9.9491861210299815e-01	  -9.7972608941791195e-01	  -2.0034168241752767e-01	   2.9796488945409727e-01	  -9.5457683014653549e-01	   9.1972642057222898e-01	   3.9255994612465933e-01	  -9.9917622606690715e-01	   4.0581637013469146e-02	   9.7078882316934267e-01	  -2.3993553469522347e-01	
   9.8148389106031264e-01	  -1.9154469867137655e-01	   9.2662125682178309e-01	  -3.7599607232791549e-01	   8.3744378230896832e-01	  -5.4652347751221941e-01	   5.5591478597980848e-01	  -8.3123928608375086e-01	  -3.8191750145804754e-01	  -9.2419641964251420e-01	  -9.8054195814979583e-01	  -1.9630962357399626e-01	  -7.0827804416008455e-01	   7.0593357489268449e-01	   3.8640192866470108e-01	  -9.2233049907514131e-01	   7.0484088581814552e-01	   7.0936543874021096e-01	
  -6.7944130426165128e-01	  -7.3372986450275146e-01	  -7.6719028126452260e-02	   9.9705275222694845e-01	   7.8369345732549689e-01	  -6.2114778027874307e-01	  -8.1160139808804388e-01	  -5.8421158035555276e-01	   3.1739365875693504e-01	   9.4829387079158445e-01	   2.9640712370522837e-01	  -9.5506168230999267e-01	  -7.9852253076177260e-01	   6.0196492245463440e-01	   1.2278202876230174e-01	   9.9243366197092153e-01	   9.8008899615273837e-01	   1.9855870572784687e-01	
  -4.7512281712027676e-01	   8.7991948986921076e-01	  -5.4851661730338408e-01	  -8.3613965373139254e-01	   9.9634833802121403e-01	  -8.5381434295546385e-02	  -8.8450912931595793e-01	   4.6652288277931875e-01	   5.6471279968654797e-01	  -8.2528749770621190e-01	  -1.1447812421269317e-01	   9.9342576928361548e-01	  -3.6219890774036140e-01	  -9.3210082675196104e-01	   9.7478922617089386e-03	  -9.9995248816954008e-01	   8.3075304631669289e-01	  -5.5664115553517490e-01	
   9.4674703559101681e-01	   3.2197833871181758e-01	   7.9265989880075616e-01	   6.0966407539986722e-01	   5.5414978325196573e-01	   8.3241697347050747e-01	   9.0010426702534918e-01	  -4.3567454422166885e-01	   6.2037538303448225e-01	  -7.8430503257649664e-01	   2.1670079182829491e-01	  -9.7623806872145180e-01	  -2.3026876824963882e-01	  -9.7312707000103238e-01	   9.9244881249659556e-01	  -1.2265950666009236e-01	   7.1189328056155332e-01	   7.0228765978857233e-01	
   3.0901699437494723e-01	  -9.5105651629515364e-01	  -8.0901699437494767e-01	  -5.8778525229247280e-01	  -8.0901699437494712e-01	   5.8778525229247358e-01	  -2.9670868845486698e-01	  -9.5496803831091259e-01	  -8.2392790839078534e-01	   5.6669462832709616e-01	   7.8564182661484994e-01	   6.1868159846021131e-01	   3.5771439645042874e-01	  -9.3383103962767566e-01	  -9.9991660280044903e-01	  -1.2914621326586917e-02	   8.1654054857793779e-01	   5.7728808451936753e-01	
  -9.9664360176051991e-01	   8.1862879681930303e-02	   9.8659693786036362e-01	  -1.6317623051337421e-01	  -9.6992744950958532e-01	   2.4339421251917792e-01	  -8.0216683982141546e-01	  -5.9709995904448321e-01	   2.8694327781815288e-01	   9.5794757440841949e-01	   3.4181407507064271e-01	  -9.3976759791110109e-01	  -8.3532711062994869e-01	   5.4975323395740161e-01	   8.4835477055781339e-01	   5.2942816630001832e-01	   7.5059412634712552e-01	  -6.6076354128628745e-01	
   5.0807534524663578e-01	   8.6131262823234622e-01	  -4.8371888710502364e-01	   8.7522342190887314e-01	  -9.9960662638304254e-01	   2.8046256276239082e-02	  -9.5900065063088602e-01	   2.8340386745691615e-01	   8.3936449582092543e-01	  -5.4356898656498398e-01	  -6.5090154458657978e-01	   7.5916215610026605e-01	   4.0906551368943261e-01	  -9.1250501670401829e-01	  -7.3134391659156361e-01	  -6.8200885306901415e-01	  -2.4314525673050785e-01	  -9.6998988867382296e-01	
   6.8803263918137425e-01	  -7.2567974163615234e-01	  -5.3222174842225620e-02	  -9.9858269567675939e-01	  -7.6126982602071291e-01	  -6.4843523345851084e-01	   0.0000000000000000e+00	   0.0000000000000000e+00	   0.0000000000000000e+00	   0.0000000000000000e+00	   0.0000000000000000e+00	   0.0000000000000000e+00	   0.0000000000000000e+00	   0.0000000000000000e+00	   0.0000000000000000e+00	   0.0000000000000000e+00	   0.0000000000000000e+00	   0.0000000000000000e+00	
  -6.4720400223057351e-01	  -7.6231684980507142e-01	  -1.6225395899345557e-01	   9.8674903232329036e-01	   8.5722682550721319e-01	  -5.1493899602848681e-01	   2.2109993359638025e-01	  -9.7525115706861698e-01	  -9.0222963872735251e-01	  -4.3125593213532842e-01	  -6.2006576001898783e-01	   7.8454984115228465e-01	   6.2803664199617804e-01	   7.7818376769897002e-01	  -8.8654715174179033e-01	   4.6263824716350355e-01	   6.0035362790880764e-01	  -7.9973465690610968e-01	
  -6.7782812491315025e-01	   7.3522039762014413e-01	  -8.1098066153445655e-02	  -9.9670612703352601e-01	   7.8776922514289582e-01	   6.1597049273302162e-01	  -7.7195421537752817e-01	  -6.3567813346131774e-01	   1.9182662127827016e-01	   9.8142882949756638e-01	   4.7579147754275031e-01	  -8.7955811058604105e-01	  -9.2640509473792620e-01	   3.7652835277521129e-01	   9.9061580837001306e-01	  -1.3667596792203679e-01	   5.5888748286290910e-02	  -9.9843700242678890e-01	
   7.5144376294993431e-01	   6.5979714391897981e-01	   1.2933545775271424e-01	   9.9160089722019507e-01	  -5.5706711683683063e-01	   8.3046747518436925e-01	  -9.7714364537456988e-01	   2.1258009385663726e-01	   9.0961940739180658e-01	  -4.1544257569028553e-01	  -8.0051400191000244e-01	   5.9931405185097453e-01	   6.5481493260764279e-01	  -7.5578925900944649e-01	  -8.7452823660352086e-01	  -4.8497460076084004e-01	  -5.9400875904224504e-01	  -8.0445857207260341e-01	
   7.2711601666451875e-01	  -6.8651460167277101e-01	   5.7395403380153219e-02	  -9.9835152510066794e-01	  -6.4364978250325955e-01	  -7.6532016665151759e-01	   9.9763884900348387e-01	   6.8678431541524088e-02	   9.9056654608199235e-01	   1.3703254278890131e-01	   9.7881648878570682e-01	   2.0473954498635624e-01	   9.6244416443361591e-01	   2.7147970522246961e-01	   7.7254793203042849e-01	  -6.3495644946366858e-01	   6.7825043988394840e-01	  -7.3483082461014826e-01	
  -5.8778525229239564e-01	  -8.0901699437500374e-01	  -3.0901699437512958e-01	   9.5105651629509436e-01	   9.5105651629524235e-01	  -3.0901699437467417e-01	   3.3047184121077011e-01	  -9.4381585183062244e-01	  -7.8157672433352710e-01	  -6.2380912463675442e-01	  -8.4705003948673652e-01	   5.3151315186504844e-01	   2.2172435203985238e-01	   9.7510938448591888e-01	  -9.5780953825309911e-01	   2.8740370288391404e-01	   5.6931658912988903e-01	  -8.2211837428773549e-01	
  -4.2093476242840777e-01	   9.0709091373430695e-01	  -6.4562785155867985e-01	  -7.6365219654743566e-01	   9.6446917505444030e-01	  -2.6419540187105334e-01	  -7.9712115808616779e-01	  -6.0381939297389797e-01	   2.7080428133726669e-01	   9.6263442760448092e-01	   3.6539351337765813e-01	  -9.3085314651750040e-01	  -8.5333008241881303e-01	   5.2137104871588502e-01	   8.8325509020884629e-01	  -4.6889278691419733e-01	  -2.1218307959752938e-01	  -9.7722993237646405e-01	
   9.4051325950289244e-01	   3.3975698476888566e-01	   7.6913038260151034e-01	   6.3909189836771851e-01	   5.0624138674361419e-01	   8.6239182414254278e-01	  -9.9501879082972389e-01	  -9.9687541326657830e-02	   9.8012478820849180e-01	   1.9838195366327840e-01	  -9.5546637242118171e-01	  -2.9510000198628894e-01	   9.2128920092148170e-01	   3.8887814063721515e-01	  -9.0195882776972147e-01	  -4.3182203858565382e-01	  -9.6969790469005934e-01	  -2.4430712973572535e-01	
   7.4632144880414597e-01	  -6.6558567822248138e-01	   1.1399140989023906e-01	  -9.9348173534858486e-01	  -5.7617298044312359e-01	  -8.1732777794914568e-01	   1.9798647335194028e-01	   9.8020475226845405e-01	  -9.2160271273932293e-01	   3.8813456412888703e-01	  -5.6291621520561974e-01	  -8.2651396519271247e-01	   6.9870312025695780e-01	  -7.1541173441815387e-01	   8.0017179647114201e-01	   5.9977086969287308e-01	  -5.0464869319985461e-01	  -8.6332479198253020e-01	
  -9.0711910437360754e-01	  -4.2087400784608231e-01	   6.4573013903915177e-01	   7.6356570610293772e-01	  -2.6438918641087278e-01	  -9.6441607105491389e-01	   8.3361122012039823e-01	  -5.5235163952810074e-01	   3.8981533262123813e-01	  -9.2089304832504493e-01	  -1.8370235002433902e-01	  -9.8298191570116655e-01	  -6.9608801290678701e-01	  -7.1795645988282653e-01	  -9.8865511165995223e-01	   1.5020342935048930e-01	  -5.2371421512285954e-01	  -8.5189401974555912e-01	
   5.0943653340041384e-01	   8.6050823263753207e-01	  -4.8094883687393808e-01	   8.7674866199476242e-01	  -9.9946234980045412e-01	   3.2787365422593535e-02	   9.9032943186457306e-02	  -9.9508415531744243e-01	  -9.8038495232765588e-01	  -1.9709222523859229e-01	  -2.9321375775590125e-01	   9.5604690902835077e-01	   9.2230930950099999e-01	   3.8645250368937778e-01	   9.0672910708717269e-01	  -4.2171355961232554e-01	  -8.0582710854847484e-01	   5.9215088544086858e-01	
   8.9237385421245841e-01	  -4.5129691370316510e-01	   5.9266219136399589e-01	  -8.0545113255096135e-01	   1.6537863369452108e-01	  -9.8623014936541731e-01	  -9.9845997658037811e-01	   5.5476798457650002e-02	   9.9384464966577857e-01	  -1.1078272577755915e-01	  -9.8616823467927661e-01	   1.6574743711309434e-01	   9.7545437533858825e-01	  -2.2020163857883659e-01	  -8.6596306965184300e-01	   5.0010795034588007e-01	  -9.1603608550398297e-01	   4.0109586142783826e-01	
   1.6724897465284885e-01	   9.8591469229217332e-01	  -9.4405556095514143e-01	   3.2978644276208990e-01	  -4.8303362382298376e-01	  -8.7560180347943339e-01	  -1.7704192169233135e-01	  -9.8420331129471739e-01	  -9.3731231592697284e-01	   3.4849049113514513e-01	   5.0892906896753309e-01	   8.6080845881057655e-01	   7.5710875517677068e-01	  -6.5328885864882213e-01	   9.4073042493445702e-01	  -3.3915522641208995e-01	  -9.9995058468168174e-01	  -9.9412370841297955e-03	
  -1.8025503781399246e-01	  -9.8361990694712764e-01	  -9.3501624268535233e-01	   3.5460488704270049e-01	   5.1733781417788238e-01	   8.5578127230131118e-01	   8.7875976714589243e-01	   4.7726436242998160e-01	   5.4443745670860633e-01	   8.3880143999200696e-01	   7.8099698219621219e-02	   9.9694555374804905e-01	  -4.0717571146532872e-01	   9.1334984534552988e-01	   3.1104585270626023e-01	  -9.5039490608600985e-01	  -6.2784760281885643e-01	  -7.7833629469183530e-01	
  -2.1329963074365083e-01	   9.7698683078362025e-01	  -9.0900653504924445e-01	  -4.1678186049511173e-01	   6.0108114728278927e-01	  -7.9918799689510212e-01	   2.8087094307077498e-01	  -9.5974554614154550e-01	  -8.4222302667706694e-01	  -5.3912927330550375e-01	  -7.5398289462819545e-01	   6.5689405128078870e-01	   4.1867925333015898e-01	   9.0813417666713803e-01	   8.7774909103990595e-01	   4.7912058312977840e-01	  -9.9756842792714062e-01	   6.9693841930067668e-02	
   9.9760676833674278e-01	  -6.9142864915481592e-02	   9.9043852846255898e-01	  -1.3795478004375508e-01	   9.7852959089472247e-01	  -2.0610637967663001e-01	   0.0000000000000000e+00	   0.0000000000000000e+00	   0.0000000000000000e+00	   0.0000000000000000e+00	   0.0000000000000000e+00	   0.0000000000000000e+00	   0.0000000000000000e+00	   0.0000000000000000e+00	   0.0000000000000000e+00	   0.0000000000000000e+00	   0.0000000000000000e+00	   0.0000000000000000e+00	
  -1.5848451047548687e-01	  -9.8736146366938249e-01	  -9.4976531987869062e-01	   3.1296299646400461e-01	   4.5953069405062463e-01	   8.8816188908630345e-01	   2.9961391620502631e-01	   9.5406053330817930e-01	  -8.2046300243257497e-01	   5.7169962536223906e-01	  -7.9125818272534199e-01	  -6.1148220601272563e-01	   3.4631907672135093e-01	  -9.3811678222856187e-01	   8.9451843975495837e-01	  -4.4703105142523925e-01	  -9.8948676943775271e-01	  -1.4462341825458175e-01	
  -9.9888190430087709e-01	   4.7275165364634240e-02	   9.9553011747949294e-01	  -9.4444614411129432e-02	  -9.8995213477270660e-01	   1.4140286722326736e-01	   5.4526122785772679e-01	  -8.3826618290080401e-01	  -4.0538038679016830e-01	  -9.1414809632020433e-01	  -9.8733764275902169e-01	  -1.5863284398591129e-01	  -6.7133348401170700e-01	   7.4115541773956095e-01	  -5.0502240120774466e-01	   8.6310623580087964e-01	  -5.8428074604017677e-01	  -8.1155160637308477e-01	
   5.6473849074463689e-01	   8.2526991770660685e-01	  -3.6214087414293938e-01	   9.3212337556515967e-01	  -9.7376827214549100e-01	   2.2754197890232247e-01	   7.8055975201576269e-02	  -9.9694897800004334e-01	  -9.8781452947066184e-01	  -1.5563564940801639e-01	  -2.3226562803381284e-01	   9.7265239321869690e-01	   9.5155508926668997e-01	   3.0747831157768118e-01	   8.6683321466072061e-01	  -4.9859821295403878e-01	  -7.7867078740284268e-01	   6.2743270941626639e-01	
   2.9570805004398287e-01	  -9.5527836212236339e-01	  -8.2511349827837066e-01	  -5.6496700342482764e-01	  -7.8369345732571527e-01	   6.2114778027846751e-01	  -9.6573031426520828e-01	  -2.5954760663358495e-01	   8.6527007978155568e-01	   5.0130598344206923e-01	  -7.0550477787823895e-01	  -7.0870516323149269e-01	   4.9738462193035959e-01	   8.6753013657578104e-01	  -5.3351444065743803e-01	   8.4579095621198330e-01	  -3.7634015542017014e-02	   9.9929158951438357e-01	
  -9.6283900522983090e-01	   2.7007600783488667e-01	   8.5411789998394050e-01	  -5.2007942944037255e-01	  -6.8191705310922734e-01	   7.3142951313084659e-01	   9.9694418351033609e-01	   7.8117187384782655e-02	   9.8779541007018146e-01	   1.5575695119089214e-01	   9.7260959362501342e-01	   2.3244478567734383e-01	   9.5147954431143611e-01	   3.0771200294577711e-01	  -9.8099432403292985e-01	   1.9403643012376581e-01	  -9.3879916780858608e-01	   3.4446498010959864e-01	
   5.5557023301970765e-01	   8.3146961230247474e-01	  -3.8268343236485541e-01	   9.2387953251138377e-01	  -9.8078528040315627e-01	   1.9509032201650142e-01	  -9.8622706489404688e-02	  -9.9512489757050338e-01	  -9.8054712352940943e-01	   1.9628382138678932e-01	   2.9203112881514670e-01	   9.5640881416000723e-01	   9.2294532292359799e-01	  -3.8493107291235329e-01	   7.7262427275013357e-01	  -6.3486355475592338e-01	  -8.8220795280083908e-01	   4.7085998769799120e-01	
   3.0901699437487290e-01	  -9.5105651629517773e-01	  -8.0901699437503960e-01	  -5.8778525229234635e-01	  -8.0901699437480923e-01	   5.8778525229266332e-01	  -9.9989842068861190e-01	   1.4253010363417154e-02	   9.9959370339116060e-01	  -2.8503125104878461e-02	  -9.9908591001359270e-01	   4.2747449190698644e-02	   9.9837514371851133e-01	  -5.6983088763614048e-02	  -2.9543018625842649e-01	   9.5536433105245844e-01	  -3.2254102302432769e-01	   9.4655548620586427e-01	
  -9.7524904250517686e-01	  -2.2110926053138483e-01	   9.0222138981452837e-01	   4.3127318924452146e-01	  -7.8453205058344055e-01	  -6.2008826920636217e-01	   9.9339359795397675e-01	  -1.1475695858662686e-01	   9.7366168091189442e-01	  -2.2799765596124955e-01	   9.4106496282799057e-01	  -3.3822586497421042e-01	   8.9603413775235141e-01	  -4.4398516189440407e-01	  -9.9417998148930820e-01	  -1.0773190987780151e-01	  -9.4343232898146856e-01	  -3.3156513784262964e-01	
  -2.8348121892666028e-01	   9.5897778833289715e-01	  -8.3927679703170988e-01	  -5.4370438472040494e-01	   7.5931963780548517e-01	  -6.5071782490027652e-01	  -8.8151831299870143e-02	  -9.9610704978856524e-01	  -9.8445850927695844e-01	   1.7561732121914589e-01	   2.6171547216287833e-01	   9.6514507284167472e-01	   9.3831711297562270e-01	  -3.4577593250122629e-01	   9.8023392413654997e-01	   1.9784199243805761e-01	  -9.3025514696154099e-01	  -3.6691328887294583e-01	
   7.2822981098468320e-01	  -6.8533301568887850e-01	   6.0637315213574731e-02	  -9.9815986495334985e-01	  -6.3991400979148416e-01	  -7.6844652388606993e-01	  -9.9053767698423367e-01	   1.3724106701231248e-01	   9.6232977905064387e-01	  -2.7188489541042710e-01	  -9.1591013068291782e-01	   4.0138339840157866e-01	   8.5215720729532229e-01	  -5.2328586265504751e-01	  -6.2728323095152771e-01	   7.7879120961077386e-01	  -8.1539489961534317e-01	   5.7890513703134849e-01	
  -9.7542978688537274e-01	   2.2031053278669241e-01	   9.0292653828648750e-01	  -4.2979491208945264e-01	  -7.8605309474249940e-01	   6.1815898622097154e-01	   9.1035043828084516e-01	  -4.1383822868588771e-01	   6.5747584095625378e-01	  -7.5347562572313309e-01	   2.8671640166634232e-01	  -9.5801550353608822e-01	  -1.3545103711773371e-01	  -9.9078404132471287e-01	  -7.9681001335400203e-01	   6.0422992529234687e-01	  -9.7915585465257948e-01	  -2.0311034513184367e-01	
   5.6892540144321846e-01	   8.2238913392181479e-01	  -3.5264777518534529e-01	   9.3575613631801857e-01	  -9.7018595557397935e-01	   2.4236173709355305e-01	  -1.6775390568000864e-01	  -9.8582890357764552e-01	  -9.4371725425820552e-01	   3.3075329781478136e-01	   4.8437841619886335e-01	   8.7485858852770071e-01	   7.8120451196929308e-01	  -6.2427518810122395e-01	   7.1529552007564567e-01	  -6.9882209392642392e-01	  -9.0617443634097905e-01	   4.2290411551805562e-01	
   4.8785965913857227e-01	  -8.7292207726989934e-01	  -5.2398590597039219e-01	  -8.5172693414285505e-01	  -9.9912283009883518e-01	   4.1875653729751376e-02	  -9.8145742251870660e-01	  -1.9168027489268927e-01	   9.2651734443412614e-01	   3.7625205708771198e-01	  -8.3721722705568158e-01	  -5.4687047344064521e-01	   7.1686877907453028e-01	   6.9720811354156820e-01	  -6.4613542733998985e-01	   7.6322277844425523e-01	  -3.1149153987800626e-01	   9.5024892558972596e-01	
  -4.2214460960296368e-01	   9.0652850401030494e-01	  -6.4358785716632272e-01	  -7.6537224283877769e-01	   9.6551889902033439e-01	  -2.6033297070206340e-01	  -2.5842081549024004e-01	   9.6603244361737628e-01	  -8.6643736424271867e-01	  -4.9928578373926341e-01	   7.0623171596787515e-01	  -7.0798076482420802e-01	   5.0142741231173904e-01	   8.6519971693381481e-01	  -7.6664499166947231e-01	  -6.4207122404614481e-01	   9.8482690020628627e-01	   1.7353955350316402e-01	
  -6.0378497422233654e-02	  -9.9817555422332060e-01	  -9.9270887409806663e-01	   1.2053668025521883e-01	   1.8025503781375082e-01	   9.8361990694717194e-01	   8.1000470998173379e-01	  -5.8642337078889284e-01	   3.1221526038518538e-01	  -9.5001138476473579e-01	  -3.0421304710138658e-01	  -9.5260402160251745e-01	  -8.0504326236522172e-01	  -5.9321610372642508e-01	  -6.3426034044034019e-01	  -7.7311953832800251e-01	   5.3644660585308168e-01	  -8.4393426229103197e-01	
  -4.0877108407109586e-01	   9.1263694908070703e-01	  -6.6581240165468214e-01	  -7.4611919007811622e-01	   9.5310079849582452e-01	  -3.0265304873174781e-01	  -5.1092102898100722e-01	  -8.5962765319933077e-01	  -4.7791940428997759e-01	   8.7840369022626086e-01	   9.9927917660065790e-01	  -3.7962181342899519e-02	  -5.4318608600622587e-01	  -8.3961233671810531e-01	   9.9337770165253136e-01	  -1.1489448141461947e-01	  -5.7567821586995915e-01	  -8.1767633680618435e-01	
   9.9846134264729591e-01	  -5.5452206799721820e-02	   9.9385010552208175e-01	  -1.1073376970801152e-01	   9.8618047885217297e-01	  -1.6567456995839436e-01	   0.0000000000000000e+00	   0.0000000000000000e+00	   0.0000000000000000e+00	   0.0000000000000000e+00	   0.0000000000000000e+00	   0.0000000000000000e+00	   0.0000000000000000e+00	   0.0000000000000000e+00	   0.0000000000000000e+00	   0.0000000000000000e+00	   0.0000000000000000e+00	   0.0000000000000000e+00	
  -9.5316538374206994e-01	  -3.0244958461838334e-01	   8.1704849752833475e-01	   5.7656894877082199e-01	  -6.0439930562288335e-01	  -7.9668154199942176e-01	   9.9729333943054055e-01	   7.3525472643707193e-02	   9.8918800974503895e-01	   1.4665292829210322e-01	   9.7572788769601937e-01	   2.1898650454369126e-01	   9.5698583724670250e-01	   2.9013463652109500e-01	  -9.2834773992176201e-01	  -3.7171289160070364e-01	  -9.7282323724168118e-01	  -2.3154902090619117e-01	
   8.5329088163222844e-01	   5.2143520337937899e-01	   4.5621065735341126e-01	   8.8987180881134131e-01	  -7.4730093586006879e-02	   9.9720379718121144e-01	   2.3632458772205983e-01	  -9.7167416824674224e-01	  -8.8830137847599688e-01	  -4.5926099442217355e-01	  -6.5617950180461393e-01	   7.5460483791945610e-01	   5.7815867800471255e-01	   8.1592434885094778e-01	   7.0831873334695872e-01	  -7.0589274822012449e-01	  -3.0501150172950009e-01	   9.5234866714492505e-01	
  -2.7127095898073805e-01	  -9.6250302171664415e-01	  -8.5282413362734144e-01	   5.2219823544586441e-01	   7.3396380012275075e-01	   6.7918858950174565e-01	  -9.0123618717683618e-01	  -4.3332820693206531e-01	   6.2445333015408244e-01	   7.8106212202325920e-01	  -2.2432368949904999e-01	  -9.7451469066891638e-01	  -2.2011607691895307e-01	   9.7547368630927689e-01	  -1.7260050380356423e-01	   9.8499191168595690e-01	   6.6155891333077244e-01	   7.4989319519022679e-01	
  -7.0957073653679581e-01	   7.0463420996331794e-01	   6.9812602987416239e-03	  -9.9997563070538931e-01	   6.9966334051252910e-01	   7.1447267963362238e-01	  -1.0676311453528205e-01	   9.9428448513226142e-01	  -9.7720327474945246e-01	  -2.1230581673365911e-01	   3.1542164482793900e-01	  -9.4895162467537697e-01	   9.0985248036210786e-01	   4.1493187872097764e-01	  -6.2485088084419338e-01	  -7.8074411730619886e-01	   7.7636284447571768e-01	   6.3028623157861585e-01	
   7.7249547654122330e-01	   6.3502026638789122e-01	   1.9349852255330349e-01	   9.8110056659329714e-01	  -4.7354200976154970e-01	   8.8077123306281546e-01	   6.0962048393749857e-01	  -7.9269342470075399e-01	  -2.5672573112761998e-01	  -9.6648429836029359e-01	  -9.2263101283595361e-01	  -3.8568382666803958e-01	  -8.6818379795397793e-01	   4.9624277623982233e-01	   9.7430545596599183e-01	  -2.2523072275979739e-01	  -3.2447323468813807e-02	   9.9947344697080875e-01	
  -1.2774070605471455e-01	  -9.9180759828539478e-01	  -9.6736462403328605e-01	   2.5338840575081406e-01	   3.7488438622744541e-01	   9.2707157057201983e-01	  -1.7470192908624121e-01	  -9.8462136680733570e-01	  -9.3895847194709192e-01	   3.4403050440154614e-01	   5.0277764184829454e-01	   8.6441578124040985e-01	   7.6328602408243551e-01	  -6.4606071343212612e-01	  -9.5423840526306902e-01	   2.9904692929537824e-01	   9.9887150080426346e-01	   4.7494472110323115e-02	
  -4.7173791913700684e-02	   9.9888669695640797e-01	  -9.9554926671296573e-01	  -9.4242546375170780e-02	   1.4110145980920974e-01	  -9.8999514041216885e-01	  -4.1689415413371717e-01	   9.0895503972921154e-01	  -6.5239852849826496e-01	  -7.5787608486697788e-01	   9.6085641952644907e-01	  -2.7704682105162748e-01	  -1.4875232002659725e-01	   9.8887448510248499e-01	  -8.8827661923985046e-01	  -4.5930888050615976e-01	   9.2760957539413491e-01	  -3.7355116869996907e-01	
   8.5351209988516208e-01	  -5.2107302304918945e-01	   4.5696580930075781e-01	  -8.8948426019244631e-01	  -7.3460404941136509e-02	  -9.9729813441412007e-01	   7.4021842236600888e-01	  -6.7236648279786881e-01	   9.5846625620046325e-02	  -9.9539611429684149e-01	  -5.9832354635485518e-01	  -8.0125459991025916e-01	  -9.8162684871450134e-01	  -1.9081071742131639e-01	   2.8143334425885863e-01	  -9.5958077968416744e-01	   9.8213741583573044e-01	   1.8816507756625175e-01	
  -5.6277300976929445e-01	  -8.2661148036741516e-01	  -3.6657307895041930e-01	   9.3038926143244460e-01	   9.7536787965194349e-01	  -2.2058444945932115e-01	  -1.6098799566720962e-01	  -9.8695636441083578e-01	  -9.4816573050210895e-01	   3.1777625383499314e-01	   4.6627459669494992e-01	   8.8464004005977581e-01	   7.9803650499719603e-01	  -6.0260910770735976e-01	  -7.2522976258532079e-01	   6.8850692913030243e-01	   9.0642916030204479e-01	  -4.2235787829059146e-01	
   1.4840461133010552e-01	   9.8892672698029571e-01	  -9.5595214267192063e-01	   2.9352257310292834e-01	  -4.3214002369692145e-01	  -9.0180652022439056e-01	   5.4713481399679353e-01	   8.3704450019858212e-01	  -4.0128699062538842e-01	   9.1595237384638040e-01	  -9.8625097994710331e-01	   1.6525436319013947e-01	  -6.7793750230963890e-01	  -7.3511954331398943e-01	  -7.4657834850187754e-01	   6.6529750454079484e-01	   9.0897300733460507e-01	   4.1685497710484887e-01	
   7.8094705050166402e-01	  -6.2459723367363018e-01	   2.1975659137449721e-01	  -9.7555473477784027e-01	  -4.3771052677723721e-01	  -8.9911595178174519e-01	   2.4538255496607311e-01	  -9.6942632609101453e-01	  -8.7957480343664418e-01	  -4.7576061749517340e-01	  -6.7704718006820375e-01	   7.3593961434460997e-01	   5.4730366968122257e-01	   8.3693410323242723e-01	  -4.1387021898152182e-01	  -9.1033589506301860e-01	   7.9713178407215546e-01	   6.0380536501586546e-01	
  -9.9918202279513246e-01	   4.0438661241780104e-02	   9.9672942935394515e-01	  -8.0811166677377935e-02	  -9.9264623200749336e-01	   1.2105146872849407e-01	  -3.3869632568617619e-01	  -9.4089574287839328e-01	  -7.7056959793336732e-01	   6.3735586193335403e-01	   8.6067450869718787e-01	   5.0915556569564702e-01	   1.8755501051838280e-01	  -9.8225410054091877e-01	   3.7646784402248490e-01	   9.2642968563030292e-01	   3.0037071560230011e-01	  -9.5382253758682078e-01	
   8.1714489833498527e-01	   5.7643231616999624e-01	   3.3545156974978696e-01	   9.4205745278746345e-01	  -2.6891982061598352e-01	   9.6316256679745771e-01	   4.1226456074862955e-01	   9.1106417553909980e-01	  -6.6007586390147910e-01	   7.5119894428487854e-01	  -9.5651633293286054e-01	  -2.9167876993822023e-01	  -1.2859970778943206e-01	  -9.9169658422144058e-01	  -1.8828695030545506e-01	   9.8211405872468349e-01	   8.6204671546556755e-01	  -5.0682882747040625e-01	
   3.5888244410717418e-01	  -9.3338276784589347e-01	  -7.4240678262332205e-01	  -6.6994937802410681e-01	  -8.9175596544637692e-01	   4.5251662741914822e-01	   7.8749962337525237e-01	  -6.1631513301543694e-01	   2.4031131363232860e-01	  -9.7069587026025028e-01	  -4.0900948541871052e-01	  -9.1253013146828288e-01	  -8.8450094508060917e-01	  -4.6653839943943431e-01	  -2.9263813514886877e-01	  -9.5622325942040987e-01	   8.5787771428964821e-01	  -5.1385389686677352e-01	
  -5.3582679497916408e-01	   8.4432792550190883e-01	  -4.2577929156471372e-01	  -9.0482705246618844e-01	   9.9211470131440327e-01	   1.2533323356489456e-01	   7.9954043826972554e-01	  -6.0061226059035389e-01	   2.7852982485708971e-01	  -9.6042758012516427e-01	  -3.5414872179486989e-01	  -9.3518911608885813e-01	  -8.4484227333015782e-01	  -5.3501545136036099e-01	   7.8698513520962091e-02	   9.9689846221648415e-01	  -9.3552889450956855e-01	   3.5325017698184458e-01	
   9.1534886483348410e-01	  -4.0266171366055165e-01	   6.7572708870389586e-01	  -7.3715188502218265e-01	   3.2170318233120976e-01	  -9.4684056866928368e-01	  -9.1669699604898192e-01	  -3.9958305448901704e-01	   6.8066676513045443e-01	   7.3259317144431724e-01	  -3.3123336176194829e-01	  -9.4354886468898802e-01	  -7.3385509693685513e-02	   9.9730364832732765e-01	  -9.9999435219996569e-01	   3.3608880033441355e-03	  -6.7820075725943529e-01	   7.3487667866978101e-01	
  -8.8941637329112821e-01	  -4.5709792705902363e-01	   5.8212297015668701e-01	   8.1310076104745899e-01	  -1.4608302856131172e-01	  -9.8927233296315076e-01	   0.0000000000000000e+00	   0.0000000000000000e+00	   0.0000000000000000e+00	   0.0000000000000000e+00	   0.0000000000000000e+00	   0.0000000000000000e+00	   0.0000000000000000e+00	   0.0000000000000000e+00	   0.0000000000000000e+00	   0.0000000000000000e+00	   0.0000000000000000e+00	   0.0000000000000000e+00	
   4.3086374494052282e-01	   9.0241699523880203e-01	  -6.2871286659165615e-01	   7.7763753213312847e-01	  -9.7264290532446740e-01	  -2.3230535663643029e-01	   9.8902014137303285e-01	   1.4778078345463663e-01	   9.5632168008306762e-01	   2.9231634268904449e-01	   9.0262266509467071e-01	   4.3043271768929681e-01	   8.2910231159380221e-01	   5.5909691191224953e-01	   2.9277303137442101e-01	   9.5618196599801664e-01	   5.5949281249275951e-01	   8.2883520241899833e-01	
   8.7357186667030906e-01	  -4.8669517540463852e-01	   5.2625561247569630e-01	  -8.5032642575532702e-01	   4.5872328801931678e-02	  -9.9894731064770748e-01	   2.8087094307077498e-01	  -9.5974554614154550e-01	  -8.4222302667706694e-01	  -5.3912927330550375e-01	  -7.5398289462819545e-01	   6.5689405128078870e-01	   4.1867925333015898e-01	   9.0813417666713803e-01	  -2.2174257289139396e-01	  -9.7510524117528197e-01	   7.1246448095496706e-01	   7.0170817536748809e-01	
  -3.9004196497529203e-01	  -9.2079708164079943e-01	  -6.9573453111642614e-01	   7.1829900613338360e-01	   9.3277329221092065e-01	   3.6046357005667085e-01	  -4.6687972962869689e-01	  -8.8432082303982573e-01	  -5.6404663612366979e-01	   8.2574293353172112e-01	   9.9356361157148676e-01	   1.1327554793963172e-01	  -3.6370278455514499e-01	  -9.3151504792291673e-01	  -6.3217734593775143e-01	   7.7482372400637078e-01	   9.9638272024077146e-01	   8.4979261032328460e-02	
  -9.5985625661105911e-01	   2.8049236468147321e-01	   8.4264806671079084e-01	  -5.3846470234228594e-01	  -6.5778578129607268e-01	   7.5320506233343598e-01	  -8.0049823119844954e-01	   5.9933511648171722e-01	   2.8159483630369286e-01	  -9.5953340127746278e-01	   3.4966589444700336e-01	   9.3687446451516498e-01	  -8.4140869633419280e-01	  -5.4039930212130560e-01	   6.0025431156331521e-01	  -7.9980920315388371e-01	   9.3647215968052100e-01	   3.5074191956950440e-01	
   5.6640623692436654e-01	   8.2412618862233622e-01	  -3.5836794954635687e-01	   9.3358042649679618e-01	  -9.7236992039807291e-01	   2.3344536385425468e-01	   7.4200865364984003e-01	   6.7039030266610489e-01	   1.0115368418249659e-01	   9.9487081180237047e-01	  -5.9189483562588918e-01	   8.0601520057589582e-01	  -9.7953586435261553e-01	   2.0126969579888199e-01	  -1.3220787574646989e-01	   9.9122201226092932e-01	   9.7276453430471288e-01	   2.3179551505353826e-01	
  -8.6055254513043675e-02	  -9.9629036589274278e-01	  -9.8518898634139052e-01	   1.7147204201158678e-01	   2.5561663243915539e-01	   9.6677822545838599e-01	   9.9934009973218119e-01	  -3.6323065224100143e-02	   9.9736126986545148e-01	  -7.2598191247261523e-02	   9.9406612206052936e-01	  -1.0877750213872667e-01	   9.8945900525525210e-01	  -1.4481324842460730e-01	  -1.2218678657000799e-01	  -9.9250712299091104e-01	  -4.9810146685078605e-02	  -9.9875870423601865e-01	
  -6.2681007587097093e-01	  -7.7917207905996455e-01	  -2.1421825757325541e-01	   9.7678581998423708e-01	   8.9535840043584969e-01	  -4.4534630880805171e-01	  -1.7470192908624121e-01	  -9.8462136680733570e-01	  -9.3895847194709192e-01	   3.4403050440154614e-01	   5.0277764184829454e-01	   8.6441578124040985e-01	   7.6328602408243551e-01	  -6.4606071343212612e-01	  -6.5768454803678322e-01	   7.5329345893459876e-01	   8.7669440688748768e-01	  -4.8104772833077208e-01	
  -9.2676145276555155e-01	   3.7565038222778946e-01	   7.1777358066423136e-01	  -6.9627658793072178e-01	  -4.0364831998067774e-01	   9.1491422208684481e-01	  -2.2291306162753186e-01	  -9.7483832862472131e-01	  -9.0061953391168037e-01	   4.3460839285120534e-01	   6.2443277695915866e-01	   7.8107855370575474e-01	   6.2223108972658481e-01	  -7.8283361640751403e-01	   5.7278562359252394e-01	   8.1970520884384002e-01	  -1.5961115792382766e-01	  -9.8717996245173800e-01	
   9.4287744546091889e-01	   3.3313979474252525e-01	   7.7803575431781624e-01	   6.2821999729641420e-01	   5.2430728355596445e-01	   8.5152913773409156e-01	   4.8319622217226549e-01	   8.7551208494140775e-01	  -5.3304282175690132e-01	   8.4608826381970359e-01	  -9.9832477763022343e-01	  -5.7858779537463989e-02	  -4.3173070034688066e-01	  -9.0200255120370476e-01	   1.6392690334617152e-01	   9.8647248839454971e-01	   7.4726273589013315e-01	  -6.6452870784488538e-01	
   5.0198314876539074e-01	  -8.6487740076590258e-01	  -4.9602583671116718e-01	  -8.6830776186498904e-01	  -9.9997637152790919e-01	  -6.8743280309308871e-03	   6.0803397837493522e-01	  -7.9391100328786779e-01	  -2.6058936228309759e-01	  -9.6544973160951708e-01	  -9.2492835171729415e-01	  -3.8014147917522684e-01	  -8.6418636852977704e-01	   5.0317185975302348e-01	  -3.8141287394206269e-01	  -9.2440479206419968e-01	   9.9185849598405851e-01	  -1.2734490152433064e-01	
  -7.2896862742132551e-01	  -6.8454710592878032e-01	   6.2790519529062463e-02	   9.9802672842828732e-01	   6.3742398974898062e-01	  -7.7051324277554856e-01	  -3.5245834730969772e-01	  -9.3582750195306641e-01	  -7.5154622682343297e-01	   6.5968042941068139e-01	   8.8223582937575007e-01	   4.7080775414778625e-01	   1.2964346210507804e-01	  -9.9156067526571923e-01	  -3.8368693044899288e-01	   9.2346323121314888e-01	   8.9754908577207082e-01	  -4.4091454799056012e-01	
  -1.7763471000221417e-01	   9.8409649415208733e-01	  -9.3689181960485857e-01	  -3.4961939070580339e-01	   5.1048372336012537e-01	  -8.5988741599373519e-01	  -8.3276723934819663e-01	   5.5362326998454769e-01	   3.8700254986323324e-01	  -9.2207864436790621e-01	   1.8820114920756198e-01	   9.8213050427982995e-01	  -7.0045805279871132e-01	  -7.1369357308962622e-01	  -3.9689035201184653e-01	  -9.1786602970145514e-01	   6.9274708613376934e-01	  -7.2118061167308989e-01	
   8.5844879360152382e-01	   5.1289927740647911e-01	   4.7386866247182319e-01	   8.8059553185737061e-01	  -4.4864830352515248e-02	   9.9899306654122477e-01	   7.9156380576731888e-01	  -6.1108652529667040e-01	   2.5314651720168357e-01	  -9.6742795123391889e-01	  -3.9080056462150548e-01	  -9.2047537647213162e-01	  -8.7183368165731545e-01	  -4.8980203299685349e-01	   9.9294283137708428e-01	  -1.1859398642789287e-01	   3.6609115686208704e-01	   9.3057899442625436e-01	
   7.0335288432021503e-01	  -7.1084085428345656e-01	  -1.0589440236868523e-02	  -9.9994393030582962e-01	  -7.1824911098809041e-01	  -6.9578604079473871e-01	  -5.1342970626990814e-01	  -8.5813165465422370e-01	  -4.7277987343919164e-01	   8.8118056678005674e-01	   9.9890816937032523e-01	  -4.6716904491047755e-02	  -5.5295838254164387e-01	  -8.3320887367870067e-01	  -9.7111730328270496e-01	  -2.3860256340812205e-01	   2.4887277368146377e-01	   9.6853618544693254e-01	
  -9.9026806874153506e-01	  -1.3917310096031663e-01	   9.6126169593817901e-01	   2.7563735581748683e-01	  -9.1354545764229156e-01	  -4.0673664307649493e-01	  -9.4432489715411883e-01	   3.2901442007131365e-01	   7.8349902277027428e-01	  -6.2139301679213066e-01	  -5.3543037104166569e-01	   8.4457937327771870e-01	   2.2774143736394964e-01	  -9.7372164282581408e-01	   9.8092474927134288e-01	  -1.9438785010116555e-01	   8.8934483506737294e-01	   4.5723709860310668e-01	
  -1.6724897465325503e-01	   9.8591469229210438e-01	  -9.4405556095486975e-01	  -3.2978644276286778e-01	   4.8303362382406595e-01	  -8.7560180347883632e-01	   8.2794809890892096e-01	   5.6080473028773892e-01	   3.7099610897379282e-01	   9.2863442060172730e-01	  -2.1361705265400374e-01	   9.7691747594943590e-01	  -7.2472377425261136e-01	   6.8903951340474667e-01	  -6.9137909370622153e-01	   7.2249217904830210e-01	   4.1443215248896392e-01	   9.1008021129094119e-01	
   7.4540094214289399e-01	   6.6661640802824973e-01	   1.1124512909502821e-01	   9.9379299718433844e-01	  -5.7955649407041043e-01	   8.1493206476418278e-01	   6.3657825752859976e-01	  -7.7121211222454988e-01	  -1.8953624408370351e-01	  -9.8187372516970983e-01	  -8.7788756152323844e-01	  -4.7886681793874825e-01	  -9.2815202435728550e-01	   3.7220131606628265e-01	   9.8860868098850896e-01	  -1.5050872358159381e-01	  -3.9596615169508555e-02	   9.9921574650678813e-01	
   6.2266854386286964e-02	  -9.9805953672355485e-01	  -9.9224567768967387e-01	  -1.2429205568402124e-01	  -1.8583488864253808e-01	   9.8258098605825639e-01	  -3.4383283369578727e-01	  -9.3903087407854968e-01	  -7.6355796494545025e-01	   6.4573929272451946e-01	   8.6890543125215269e-01	   4.9497813238617971e-01	   1.6604153166327468e-01	  -9.8611876047609692e-01	  -9.5861810814091208e-01	   2.8469514000828772e-01	   9.1579933016299209e-01	   4.0163613740924137e-01	
  -5.0786524524224141e-01	   8.6143652852374331e-01	  -4.8414578535007596e-01	  -8.7498734763867203e-01	   9.9962688126186916e-01	   2.7314799261002148e-02	  -9.0487171416522882e-01	   4.2568436769944973e-01	   6.3758563819263936e-01	  -7.7037948698708536e-01	  -2.4899470455178105e-01	   9.6850484619601740e-01	  -1.8696910794096963e-01	  -9.8236579372235777e-01	   9.2852831069452232e-02	  -9.9567984400729326e-01	   8.2625295898512996e-01	  -5.6329925241235412e-01	
   9.6170794318403996e-01	   2.7407632516640923e-01	   8.4976433596655343e-01	   5.2716275790245515e-01	   6.7274228028305127e-01	   7.3987689808478307e-01	   9.7545051224386203e-01	   2.2021875070753441e-01	   9.0300740367362564e-01	   4.2962498636673557e-01	   7.8622755670301403e-01	   6.1793707534085451e-01	   6.3084474217876452e-01	   7.7590908698468541e-01	   8.7774175988120418e-01	   4.7913401357099095e-01	   9.9845525173452143e-01	   5.5561769983987402e-02	
   8.3344769071538538e-01	  -5.5259835942680047e-01	   3.8927010631761733e-01	  -9.2112365311475464e-01	  -1.8457514836548569e-01	  -9.8281840367682316e-01	   4.9734657426828388e-01	  -8.6755194948982872e-01	  -5.0529277012720475e-01	  -8.6294798015707519e-01	  -9.9995783071887734e-01	   9.1835060841160363e-03	  -4.8935843291435160e-01	   8.7208275073848929e-01	  -6.4895430196492715e-02	  -9.9789206988512147e-01	   8.9392013781471091e-01	   4.4822626787073538e-01	
  -8.8267879832541885e-01	  -4.6997674302756148e-01	   5.5824372202641093e-01	   8.2967701355292423e-01	  -1.0282099713654377e-01	  -9.9469987561467343e-01	  -4.4208217468469740e-01	  -8.9697455416865013e-01	  -6.0912670165209737e-01	   7.9307292308742749e-01	   9.8065028853444969e-01	   1.9576774912456985e-01	  -2.5792932266887342e-01	  -9.6616378761966448e-01	  -3.1340616835005053e-02	   9.9950876221091800e-01	   8.1177374225855781e-01	  -5.8397208099320685e-01	
   9.9242050967195083e-01	  -1.2288829066459238e-01	   9.6979693603506933e-01	  -2.4391372010813919e-01	   9.3247222940448815e-01	  -3.6124166618681142e-01	  -4.1689415413371717e-01	   9.0895503972921154e-01	  -6.5239852849826496e-01	  -7.5787608486697788e-01	   9.6085641952644907e-01	  -2.7704682105162748e-01	  -1.4875232002659725e-01	   9.8887448510248499e-01	  -3.0203437780135101e-01	   9.5329703378650599e-01	  -5.2543424004792993e-01	  -8.5083421380739876e-01	
  -7.8556750324455982e-01	  -6.1877596741155716e-01	   2.3423260430778295e-01	   9.7218058357446824e-01	   4.1755645895548826e-01	  -9.0865098007131084e-01	   8.4579357681025458e-01	  -5.3351028614874518e-01	   4.3073354914696804e-01	  -9.0247914637361926e-01	  -1.1717023843987520e-01	  -9.9311184426727228e-01	  -6.2893721927851287e-01	  -7.7745609149727013e-01	  -9.9455129183082402e-01	  -1.0424839527608565e-01	  -3.3430460495941100e-01	  -9.4246508216640690e-01	
  -5.9063731686113330e-01	   8.0693714744773104e-01	  -3.0229511986216256e-01	  -9.5321438328820907e-01	   9.4773087385233779e-01	   3.1907082402984471e-01	   1.7126354910339436e-01	  -9.8522525178179898e-01	  -9.4133759349701840e-01	  -3.3746634657287244e-01	  -4.9369718343688979e-01	   8.6963388334774649e-01	   7.7223292986151593e-01	   6.3533951713827708e-01	   6.9386021114773400e-01	   7.2010971899150333e-01	  -8.9616949738482132e-01	  -4.4371187944096874e-01	
   5.9595364466372014e-01	   8.0301883752003500e-01	  -2.8967850682405671e-01	   9.5712400590737712e-01	  -9.4122356850880207e-01	   3.3778424191124778e-01	  -7.1059621289106634e-01	  -7.0360004421892586e-01	   9.8939555502512589e-03	   9.9995105362391101e-01	   6.9653499820202414e-01	  -7.1752281934423956e-01	  -9.9980421928713925e-01	   1.9786942553963776e-02	   1.4152168663105960e-01	  -9.8993515555974687e-01	  -9.8848649254439480e-01	  -1.5130913408409977e-01	
  -4.0768361494124489e-01	  -9.1312325022881702e-01	  -6.6758814021687751e-01	   7.4453077508036603e-01	   9.5201310753228374e-01	   3.0605725458927507e-01	   4.2575579913830802e-01	   9.0483810679043619e-01	  -6.3746399900020145e-01	   7.7048014249471164e-01	  -9.6856378777077268e-01	  -2.4876532921436942e-01	  -1.8727929995734227e-01	  -9.8230670556984789e-01	   6.5265504972846855e-01	  -7.5765518942585630e-01	  -9.9980237627827639e-01	  -1.9879848800021981e-02	
   3.5940777283718378e-01	   9.3318061104172934e-01	  -7.4165210564843065e-01	   6.7078473013870044e-01	  -8.9251883585940417e-01	  -4.5101011921704603e-01	   9.6163026009035413e-01	  -2.7434876139424758e-01	   8.4946551424288441e-01	  -5.2764414155003370e-01	   6.7211322670798856e-01	  -7.4044838475357344e-01	   4.4318331977585612e-01	  -8.9643100407808929e-01	   6.0163433486834117e-01	   7.9877163639398763e-01	   8.9600445275489951e-02	   9.9597779102068029e-01	
   9.0655515104867335e-01	  -4.2208738207522517e-01	   6.4368448378576582e-01	  -7.6529098082588964e-01	   2.6051581780351107e-01	  -9.6546957936237843e-01	  -2.8244478535933759e-01	  -9.5928355725682990e-01	  -8.4044988644663543e-01	   5.4188927685629429e-01	   7.5720616092473669e-01	   6.5317595627642455e-01	   4.1271202325632489e-01	  -9.1086156240104388e-01	  -6.6095326040468916e-01	  -7.5042707011435250e-01	   1.4884971029600033e-01	   9.8885983018059576e-01	
  -6.7944130426118043e-01	  -7.3372986450318756e-01	  -7.6719028127731903e-02	   9.9705275222684997e-01	   7.8369345732669293e-01	  -6.2114778027723394e-01	  -2.0449914280729783e-01	  -9.7886674302025423e-01	  -9.1636020118216077e-01	   4.0035481974042697e-01	   5.7928889409624684e-01	   8.1512230810887965e-01	   6.7943203662122043e-01	  -7.3373844632317076e-01	  -5.7927859841364338e-01	   8.1512962491859220e-01	   8.5716892703221148e-01	  -5.1503536823255869e-01	
  -3.3604939321608857e-01	   9.4184436363928981e-01	  -7.7414161063819742e-01	  -6.3301245380995275e-01	   8.5634903025267195e-01	  -5.1639746163716593e-01	  -5.4140264031155105e-01	   8.4076345131296071e-01	  -4.1376636212736267e-01	  -9.1038310483657825e-01	   9.8943104216726996e-01	   1.4500418199414122e-01	  -6.5759479514377639e-01	   7.5337181086088878e-01	  -6.0993028901074353e-01	  -7.9245507288884887e-01	   9.7380634653531351e-01	  -2.2737897758487918e-01	
   9.9806559713357623e-01	   6.2169637431771715e-02	   9.9226987236320408e-01	   1.2409875261383833e-01	   9.8263524822210124e-01	   1.8554775383035330e-01	   4.7242429315107776e-01	  -8.8137125392237781e-01	  -5.5363057448140907e-01	  -8.3276238327591678e-01	  -9.9552135878348735e-01	   9.4536893358514021e-02	  -3.8698637399876989e-01	   9.2208543331910642e-01	   5.2630496554337824e-01	  -8.5029587982324339e-01	   4.1671590294509797e-01	   9.0903677386157034e-01	
  -5.5745400750669005e-01	  -8.3020782308692509e-01	  -3.7849005902946220e-01	   9.2560535608642314e-01	   9.7943560792152495e-01	  -2.0175700715314193e-01	  -9.9997259758771517e-01	  -7.4029773522232833e-03	   9.9989039185264494e-01	   1.4805548985571484e-02	  -9.9975338730006036e-01	  -2.2207309203404427e-02	   9.9956159143847167e-01	   2.9607852353553201e-02	   5.5129272221019510e-01	   8.3431189278235307e-01	   5.6358474163409766e-01	   8.2605825399739663e-01	
  -6.3502026638760845e-01	   7.7249547654145578e-01	  -1.9349852255402164e-01	  -9.8110056659315548e-01	   8.8077123306333560e-01	   4.7354200976058225e-01	   8.4001232608809329e-01	  -5.4256731565776328e-01	   4.1124141595985819e-01	  -9.1152646577010088e-01	  -1.4911660927969095e-01	  -9.8881961794703888e-01	  -6.6176099559866175e-01	  -7.4971486893636297e-01	  -1.1429405401647286e-01	   9.9344696346432082e-01	  -9.5255564814619786e-01	   3.0436448081991585e-01	
   9.8110056659322631e-01	  -1.9349852255366268e-01	   9.2511664353909939e-01	  -3.7968302022470130e-01	   8.3416435968884250e-01	  -5.5151592998290022e-01	   0.0000000000000000e+00	   0.0000000000000000e+00	   0.0000000000000000e+00	   0.0000000000000000e+00	   0.0000000000000000e+00	   0.0000000000000000e+00	   0.0000000000000000e+00	   0.0000000000000000e+00	   0.0000000000000000e+00	   0.0000000000000000e+00	   0.0000000000000000e+00	   0.0000000000000000e+00	
  -9.2957781034864762e-01	   3.6862595473923659e-01	   7.2822981098517259e-01	  -6.8533301568835847e-01	  -4.2431473590376567e-01	   9.0551477342720232e-01	  -4.4449595435790695e-01	   8.9578085855830469e-01	  -6.0484669311890704e-01	  -7.9634193524083785e-01	   9.8219977055413221e-01	  -1.8783932155810729e-01	  -2.6832095564624542e-01	   9.6332957224466309e-01	   8.2985501737667389e-02	  -9.9655075460377207e-01	   7.4340165018404369e-01	   6.6884526349794893e-01	
   5.2234739126327812e-01	   8.5273278513286199e-01	  -4.5430640568089559e-01	   8.9084549151763992e-01	  -9.9695892294650290e-01	   7.7928851892922077e-02	   6.7008434902291247e-01	   7.4228496225812068e-01	  -1.0197393038907916e-01	   9.9478707144845990e-01	  -8.0674661854706031e-01	   5.9089753211778095e-01	  -9.7920263504200644e-01	  -2.0288469515168234e-01	  -2.8295391159013822e-01	   9.5913350682573917e-01	   9.8298753486707890e-01	   1.8367227960675875e-01	
   7.1630194342490272e-01	  -6.9779045984142507e-01	   2.6176948308584948e-02	  -9.9965732497553861e-01	  -6.7880074553215741e-01	  -7.3432250943641053e-01	   3.3976898933070432e-01	  -9.4050892281210796e-01	  -7.6911406777838343e-01	  -6.3911153232075868e-01	  -8.6241120830888118e-01	   5.0620836399966329e-01	   1.8307289850922362e-01	   9.8309934077458905e-01	  -4.1290096636092655e-01	  -9.1077592852370282e-01	   8.9965534110712275e-01	   4.3660080991384631e-01	
   2.8572084468549031e-01	   9.5831289196807212e-01	  -8.3672719782441984e-01	   5.4761993793222519e-01	  -7.6386164815292346e-01	  -6.4538002950284989e-01	  -9.0123618717683618e-01	  -4.3332820693206531e-01	   6.2445333015408244e-01	   7.8106212202325920e-01	  -2.2432368949904999e-01	  -9.7451469066891638e-01	  -2.2011607691895307e-01	   9.7547368630927689e-01	   1.5776204249511044e-01	  -9.8747715819039128e-01	  -6.7276597181770292e-01	  -7.3985535556903392e-01	
  -5.6640623692436654e-01	  -8.2412618862233611e-01	  -3.5836794954635665e-01	   9.3358042649679629e-01	   9.7236992039807257e-01	  -2.3344536385425591e-01	  -9.6854632926373196e-01	   2.4883329373247143e-01	   8.7616398386049921e-01	  -4.8201314648637844e-01	  -7.2866449153861668e-01	   6.8487083364001500e-01	   5.3532665322860218e-01	  -8.4464511739727943e-01	   7.5366071561126258e-01	   6.5726366531576930e-01	   3.4352064767909501e-01	   9.3914512436477837e-01	
  -4.2245313933223949e-01	   9.0638476656899714e-01	  -6.4306669013667084e-01	  -7.6581018015998392e-01	   9.6578422342869763e-01	  -2.5934693708665135e-01	   7.4669454559331305e-01	  -6.6516708846814998e-01	   1.1510548883760864e-01	  -9.9335327373470472e-01	  -5.7479726422752297e-01	  -8.1829585422178153e-01	  -9.7350145287891032e-01	  -2.2868082832334410e-01	   2.8745386130242800e-01	   9.5779448610979401e-01	  -9.1834077111873880e-01	   3.9579063670208303e-01	
   9.1709669937984595e-01	  -3.9866482662330832e-01	   6.8213271202681502e-01	  -7.3122839331014911e-01	   3.3406661809778498e-01	  -9.4254946537182260e-01	  -6.9238463554395169e-02	  -9.9760013791329571e-01	  -9.9041207032925338e-01	   1.3814460158153866e-01	   2.0638768362504445e-01	   9.7847029798961627e-01	   9.6183213810775592e-01	  -2.7364016171436306e-01	  -4.6120645241646008e-01	  -8.8729285371258548e-01	   3.3420971962472490e-01	   9.4249873384973981e-01	
  -9.7979065204223081e-01	  -2.0002569377622484e-01	   9.1997944365867990e-01	   3.9196660986041387e-01	  -8.2298386589334227e-01	  -5.6806474673161078e-01	  -3.3597143566849502e-01	  -9.4187217519940059e-01	  -7.7424638882970065e-01	   6.3288429383590172e-01	   8.5622077730101964e-01	   5.1661008557522148e-01	   1.9891494123166398e-01	  -9.8001675809896416e-01	   1.4078303672841749e-01	   9.9004047218763991e-01	   5.1758030731398130e-01	  -8.5563463317046995e-01	
   2.4977647816682011e-01	   9.6830352212236637e-01	  -8.7522342190916003e-01	   4.8371888710450450e-01	  -6.8699692603398610e-01	  -7.2666032203489261e-01	   0.0000000000000000e+00	   0.0000000000000000e+00	   0.0000000000000000e+00	   0.0000000000000000e+00	   0.0000000000000000e+00	   0.0000000000000000e+00	   0.0000000000000000e+00	   0.0000000000000000e+00	   0.0000000000000000e+00	   0.0000000000000000e+00	   0.0000000000000000e+00	   0.0000000000000000e+00	
   5.7848604701428119e-01	  -8.1569227862582516e-01	  -3.3070778681958168e-01	  -9.4373320368465052e-01	  -9.6110572764248403e-01	  -2.7618070224548874e-01	   0.0000000000000000e+00	   0.0000000000000000e+00	   0.0000000000000000e+00	   0.0000000000000000e+00	   0.0000000000000000e+00	   0.0000000000000000e+00	   0.0000000000000000e+00	   0.0000000000000000e+00	   0.0000000000000000e+00	   0.0000000000000000e+00	   0.0000000000000000e+00	   0.0000000000000000e+00	
  -8.8744929075522361e-01	   4.6090536592455794e-01	   5.7513248732389877e-01	  -8.1806028019005150e-01	  -1.3335254517653947e-01	   9.9106866497480339e-01	   0.0000000000000000e+00	   0.0000000000000000e+00	   0.0000000000000000e+00	   0.0000000000000000e+00	   0.0000000000000000e+00	   0.0000000000000000e+00	   0.0000000000000000e+00	   0.0000000000000000e+00	   0.0000000000000000e+00	   0.0000000000000000e+00	   0.0000000000000000e+00	   0.0000000000000000e+00	
   7.5782385220827309e-01	  -6.5245920104188382e-01	   1.4859398195157317e-01	  -9.8889829028458509e-01	  -5.3260772457325911e-01	  -8.4636222252939397e-01	   0.0000000000000000e+00	   0.0000000000000000e+00	   0.0000000000000000e+00	   0.0000000000000000e+00	   0.0000000000000000e+00	   0.0000000000000000e+00	   0.0000000000000000e+00	   0.0000000000000000e+00	   0.0000000000000000e+00	   0.0000000000000000e+00	   0.0000000000000000e+00	   0.0000000000000000e+00	
  -4.1166194381935567e-01	   9.1133662496953871e-01	  -6.6106888802173935e-01	  -7.5032521301746291e-01	   9.5593575070241399e-01	  -2.9357595359465694e-01	   8.3316036839089902e-01	   5.5303146433339712e-01	   3.8831239891451708e-01	   9.2152779711154287e-01	  -1.8610736573015343e-01	   9.8252941351441636e-01	  -6.9842696169850593e-01	   7.1568133912558718e-01	  -8.4697824497260787e-01	   5.3162755058698852e-01	   1.6101741144251200e-01	   9.8695156578849030e-01	
   9.8858555573667295e-01	  -1.5066054224253086e-01	   9.5460280202237313e-01	  -2.9788167176084174e-01	   8.9882752735347293e-01	  -4.3830249380039099e-01	   3.0079363507657508e-01	  -9.5368925185168163e-01	  -8.1904637819484039e-01	  -5.7372731359585316e-01	  -7.9352150986363423e-01	   6.0854220345325127e-01	   3.4167393926817102e-01	   9.3981855654427793e-01	   1.5367690307938117e-01	  -9.8812115120562538e-01	   4.4104358270907790e-01	   8.9748568687814778e-01	
  -4.3077074522461578e-01	  -9.0246139255850122e-01	  -6.2887313011725832e-01	   7.7750793321774014e-01	   9.7257103904931208e-01	   2.3260604893798781e-01	  -3.4121226173365021e-01	  -9.3998627247561817e-01	  -7.6714838488521397e-01	   6.4146968405997773e-01	   8.6473313271765151e-01	   5.0223162901226803e-01	   1.7703328886398473e-01	  -9.8420486415888075e-01	  -7.0131706017743989e-01	   7.1284947997741654e-01	   9.9528558071100215e-01	  -9.6987694213044970e-02	
  -3.5858327990834904e-01	   9.3349774042049538e-01	  -7.4283606274034120e-01	  -6.6947336309402772e-01	   8.9132046353162053e-01	  -4.5337383172143630e-01	  -2.9902806982218483e-01	   9.5424431539224719e-01	  -8.2116442691683711e-01	  -5.7069167154107170e-01	   7.9013049699734950e-01	  -6.1293865738320130e-01	   3.4862203206731507e-01	   9.3726339881447196e-01	  -7.8355844616626347e-01	  -6.2131808394856081e-01	   9.9801137828926711e-01	   6.3034028945937459e-02	
   9.4426316827832490e-01	  -3.2919153851971922e-01	   7.8326586193404046e-01	  -6.2168689026609258e-01	   5.3495504050985598e-01	  -8.4488052683980019e-01	   0.0000000000000000e+00	   0.0000000000000000e+00	   0.0000000000000000e+00	   0.0000000000000000e+00	   0.0000000000000000e+00	   0.0000000000000000e+00	   0.0000000000000000e+00	   0.0000000000000000e+00	   0.0000000000000000e+00	   0.0000000000000000e+00	   0.0000000000000000e+00	   0.0000000000000000e+00	
  -9.9645663139598661e-01	  -8.4108155056229955e-02	   9.8585163650607432e-01	   1.6762025772052444e-01	  -9.6826017014214061e-01	  -2.4994447966761144e-01	   7.7043540908453623e-01	  -6.3751806282547263e-01	   1.8714143914251335e-01	  -9.8233297906344819e-01	  -4.8207462663967399e-01	  -8.7613015833848507e-01	  -9.2995616351133792e-01	  -3.6767041483817231e-01	  -8.2132594052383834e-01	   5.7045920048907295e-01	  -7.1408500436529365e-01	  -7.0005900218525763e-01	
   2.2535506441670722e-01	   9.7427670347891504e-01	  -8.9843018988348344e-01	   4.3911637854437613e-01	  -6.3028665104692116e-01	  -7.7636250393231676e-01	  -8.6050475300133433e-01	  -5.0944241093779452e-01	   4.8093685987577467e-01	   8.7675523198486216e-01	   3.2807845368052209e-02	  -9.9946167774572825e-01	  -5.3739947362565887e-01	   8.4332781630091191e-01	   3.0241876869732653e-01	  -9.5317516141556735e-01	  -6.9025697678432374e-01	  -7.2356430674858851e-01	
   7.5174282388089708e-01	  -6.5945638729454625e-01	   1.3023454651285091e-01	  -9.9148321362219349e-01	  -5.5593705235605995e-01	  -8.3122439438316265e-01	  -9.1421564279021239e-01	   4.0522803268984081e-01	   6.7158048304464257e-01	  -7.4093161276431208e-01	  -3.1372312319382578e-01	   9.4951450856398800e-01	  -9.7959309587048959e-02	  -9.9519042080660558e-01	  -4.2002483447908551e-01	   9.0751261061255606e-01	  -9.5448526341532247e-01	   2.9825807939263349e-01	
  -8.6713729318925126e-01	  -4.9806918672049816e-01	   5.0385417047916314e-01	   8.6378873278756907e-01	  -6.6841899135828510e-03	  -9.9997766055307413e-01	   9.9509891139994322e-01	   9.8884561639560234e-02	   9.8044368693870398e-01	   1.9679983928357395e-01	   9.5617797972335894e-01	   2.9278605002997615e-01	   9.2253964651591891e-01	   3.8590232003226327e-01	  -8.1363602329188867e-01	  -5.8137459662575663e-01	  -9.1213872968194609e-01	  -4.0988161438908882e-01	
  -1.2103749786451543e-01	   9.9264793563009912e-01	  -9.7069984822139488e-01	  -2.4029524477808753e-01	   3.5601965947688025e-01	  -9.3447846527673728e-01	  -1.7120897806673502e-02	  -9.9985342668727872e-01	  -9.9941374971658692e-01	   3.4236776679930435e-02	   5.1342619157637610e-02	   9.9868109797774474e-01	   9.9765568624513712e-01	  -6.8433410719797347e-02	   9.9457471056552171e-01	   1.0402473313356179e-01	  -9.9043016930209404e-01	  -1.3801478086141850e-01	
   8.4056660349578138e-01	  -5.4170821028258920e-01	   4.1310442982486828e-01	  -9.1068366080602903e-01	  -1.4608302856187783e-01	  -9.8927233296306716e-01	   0.0000000000000000e+00	   0.0000000000000000e+00	   0.0000000000000000e+00	   0.0000000000000000e+00	   0.0000000000000000e+00	   0.0000000000000000e+00	   0.0000000000000000e+00	   0.0000000000000000e+00	   0.0000000000000000e+00	   0.0000000000000000e+00	   0.0000000000000000e+00	   0.0000000000000000e+00	
  -9.1137600015066567e-01	  -4.1157476398507942e-01	   6.6121242730125229e-01	   7.5019872432735191e-01	  -2.9385027433678973e-01	  -9.5585146140610855e-01	   9.3770908301846023e-01	  -3.4742146684492381e-01	   7.5859664875064303e-01	  -6.5156053019216376e-01	   4.8497685274322300e-01	  -8.7452698775010840e-01	   1.5093775099141282e-01	  -9.8854326932393521e-01	  -9.9759546160636237e-01	  -6.9305807710385123e-02	  -7.1161564516626308e-01	  -7.0256898134959178e-01	
  -4.8825278033368530e-01	   8.7270225306024396e-01	  -5.2321844499285219e-01	  -8.5219860292027105e-01	   9.9917850131294017e-01	  -4.0525578515634826e-02	  -1.5870212610689349e-01	  -9.8732650889619678e-01	  -9.4962727033830341e-01	   3.1338163224704618e-01	   4.6011785973044239e-01	   8.8785784625528708e-01	   8.0358390514035416e-01	  -5.9519148800984900e-01	   9.3912882313637380e-01	   3.4356521004678220e-01	  -7.8415531450325804e-01	  -6.2056461608465596e-01	
   9.9738121017229397e-01	   7.2323727747195241e-02	   9.8953855680949920e-01	   1.4426865420933821e-01	   9.7651311643331307e-01	   2.1545796210328066e-01	  -9.9235206831752376e-01	   1.2343975253512424e-01	   9.6952525498813458e-01	  -2.4499138748166766e-01	  -9.3186871582957587e-01	   3.6279566763970217e-01	   8.7995844011961477e-01	  -4.7505067483612146e-01	  -9.9868092987104218e-01	   5.1345888948488169e-02	  -9.8082568375997925e-01	  -1.9488709058521322e-01	
   2.7022102179513019e-01	  -9.6279831708411068e-01	  -8.5396119875999155e-01	  -5.2033669005020022e-01	  -7.3173755719976852e-01	   6.8158649295838858e-01	   9.3412879204287169e-01	  -3.5693612856717855e-01	   7.4519320024694913e-01	  -6.6684862922983534e-01	   4.5808405592761631e-01	  -8.8890888042864358e-01	   1.1062581138857931e-01	  -9.9386212819214437e-01	  -9.1236267216920949e-02	  -9.9582927429571111e-01	   5.9607874056507271e-01	  -8.0292598354166911e-01	
  -9.8518898634126262e-01	   1.7147204201232155e-01	   9.4119467761624931e-01	  -3.3786473451197097e-01	  -8.6932027443982562e-01	   4.9424918861629541e-01	  -2.3244478567734403e-01	  -9.7260959362501331e-01	  -8.9193884322282724e-01	   4.5215605707578976e-01	   6.4709785217780047e-01	   7.6240695806562353e-01	   5.9110980009935021e-01	  -8.0659110100874920e-01	   3.9577739588142991e-01	   9.1834647759400367e-01	   6.2226689682119335e-02	  -9.9806204170442492e-01	
   9.9009301225110757e-01	   1.4041305883545252e-01	   9.6056834581694350e-01	   2.7804397676357034e-01	   9.1201100171481475e-01	   4.1016573814878815e-01	  -8.4446663944265676e-01	   5.3560815422137287e-01	   4.2624781026314806e-01	  -9.0460643610681402e-01	   1.2456252763723309e-01	   9.9221176001326628e-01	  -6.3662560849174266e-01	  -7.7117302508095964e-01	  -9.1130689806278364e-01	   4.1172774687065622e-01	  -7.6089413951991625e-01	  -6.4887603472793343e-01	
   3.0901699437553937e-01	  -9.5105651629496124e-01	  -8.0901699437421570e-01	  -5.8778525229348022e-01	  -8.0901699437604546e-01	   5.8778525229096179e-01	   9.7852999705890520e-01	   2.0610445132480532e-01	   9.1504191028820192e-01	   4.0335877629737804e-01	   8.1226191850727314e-01	   5.8329287304310851e-01	   6.7460339516776346e-01	   7.3818037038932860e-01	   4.9839938006730200e-01	  -8.6694755201715001e-01	   1.0636541712759451e-01	  -9.9432710816877201e-01	
  -8.2477037114886642e-01	  -5.6546780180215483e-01	   3.6049233025007793e-01	   9.3276217753019375e-01	   2.3012358511551301e-01	  -9.7316141290825087e-01	   1.7381229959784020e-01	  -9.8477879978628224e-01	  -9.3957856901702130e-01	  -3.4233333557210954e-01	  -5.0043292306523313e-01	   8.6577531121670737e-01	   7.6561577471214681e-01	   6.4329813112733292e-01	  -7.0021593802606230e-01	   7.1393111721949876e-01	   4.1350546832696472e-01	  -9.1050163517903560e-01	
   1.8738131458515239e-01	   9.8228725072879786e-01	  -9.2977648588868034e-01	   3.6812455268359467e-01	  -5.3582679497752117e-01	  -8.4432792550295144e-01	  -9.4126949329111231e-01	  -3.3765624679471379e-01	   7.7197651800101463e-01	   6.3565104865407807e-01	  -5.1200639857179198e-01	  -8.5898163415846285e-01	   1.9189548868994186e-01	   9.8141536640733740e-01	   1.5529911132359472e-01	  -9.8786749416209751e-01	  -5.0805174138717302e-01	  -8.6132655135753311e-01	
   9.7899317230952165e-01	  -2.0389303217947186e-01	   9.1685526285732166e-01	  -3.9921977277037707e-01	   8.1619691235721781e-01	  -5.7777383140684391e-01	   9.9921487012712595e-01	   3.9618724321093771e-02	   9.9686071336633830e-01	   7.9175236954208236e-02	   9.9294122635523385e-01	   1.1860742389987344e-01	   9.8746256370648999e-01	   1.5785336638224179e-01	   9.8630251735751218e-01	  -1.6494648906307288e-01	   9.7014655369169134e-01	  -2.4251941027500087e-01	
  -1.3658673765362516e-02	  -9.9990671596453007e-01	  -9.9962688126194277e-01	   2.7314799258309031e-02	   4.0965828681849815e-02	   9.9916054810045885e-01	  -6.1422374594246681e-02	  -9.9811186341972913e-01	  -9.9245458379840812e-01	   1.2261280152385638e-01	   1.8334020902193182e-01	   9.8304952456923267e-01	   9.6993220180494277e-01	  -2.4337527380943139e-01	  -9.9717980734078215e-01	   7.5049529191065417e-02	   9.9885770369373561e-01	   4.7783760543488235e-02	
  -6.5403129230450024e-02	   9.9785892323858338e-01	  -9.9144486137373011e-01	  -1.3052619222066156e-01	   1.9509032201703339e-01	  -9.8078528040305046e-01	  -9.8057982183309056e-01	  -1.9612040437900460e-01	   9.2307357397243139e-01	   3.8462342236759606e-01	  -8.2971481957635163e-01	  -5.5818752957709683e-01	   7.0412964593247562e-01	   7.1007143423672980e-01	   2.5983348434687081e-01	  -9.6565343701152151e-01	  -1.3156750673062781e-01	  -9.9130721331617788e-01	
