   5.8728970314876416e-01	  -8.0937680012182001e-01	  -3.1018160915087306e-01	  -9.5067732135808047e-01	  -9.5162263346960885e-01	  -3.0726920357947779e-01	   7.6638606217165328e-01	   6.4238026410298976e-01	   1.7469519258194627e-01	   9.8462256204535381e-01	  -4.9861814072526039e-01	   8.6682175199961631e-01	  -9.3896317937751339e-01	   3.4401765619408486e-01	   9.7001832557122802e-01	  -2.4303178404478490e-01	  -6.9837039670947398e-02	  -9.9755841327212436e-01	   1.6499929999999999e-01	   8.4286755000000002e-01	   3.1710909999999998e-01	   2.0740575999999999e-01	   4.4222922999999997e-01	   3.1273319999999999e-01	
   7.6869322723023181e-01	   6.3961763766360535e-01	   1.8177855517925759e-01	   9.8333949217802785e-01	  -4.8922933878624725e-01	   8.7215517774692553e-01	   6.8168631376564948e-01	  -7.3164456508922449e-01	  -7.0607539249200976e-02	  -9.9750417312469053e-01	  -7.7795070007535194e-01	  -6.2832532039722055e-01	  -9.9002915080234510e-01	   1.4086263011028671e-01	   9.9198042081898319e-01	  -1.2639163228549982e-01	   5.6034884155412169e-02	   9.9842881156229135e-01	   1.0462524000000001e-02	   7.3212953999999997e-01	   1.6711422000000001e-01	   6.0415582999999995e-01	   3.1715731000000003e-01	   6.8973883000000002e-01	
  -1.0000000000000000e+00	   1.2246467991473532e-16	   1.0000000000000000e+00	  -2.4492935982947064e-16	  -1.0000000000000000e+00	   3.6739403974420594e-16	   0.0000000000000000e+00	   0.0000000000000000e+00	   0.0000000000000000e+00	   0.0000000000000000e+00	   0.0000000000000000e+00	   0.0000000000000000e+00	   0.0000000000000000e+00	   0.0000000000000000e+00	   0.0000000000000000e+00	   0.0000000000000000e+00	   0.0000000000000000e+00	   0.0000000000000000e+00	   1.9300676999999999e-02	   6.5476144999999997e-01	   6.1597751000000001e-01	   8.3774126000000004e-01	   7.6649668999999998e-01	   1.2934366000000000e-01	
   5.3743952450311905e-01	  -8.4330229307281113e-01	  -4.2231751500372261e-01	  -9.0644796680288298e-01	  -9.9137977340899808e-01	  -1.3101963545790987e-01	  -5.0909942848745060e-01	   8.6070771572802296e-01	  -4.8163554382750234e-01	  -8.7637161234375116e-01	   9.9950018869109847e-01	   3.1612858245635672e-02	  -5.3605440584397213e-01	   8.4418343621233538e-01	   4.5222663556779785e-01	   8.9190306092255911e-01	  -9.9944694511000809e-01	  -3.3253630031509732e-02	   7.1068889999999996e-01	   6.1279459000000001e-02	   7.9750249999999995e-02	   5.3196684999999999e-01	   4.5338665000000000e-01	   4.7098298999999999e-01	
   1.2336963808358981e-01	   9.9236078741510336e-01	  -9.6955986479824818e-01	   2.4485438238349500e-01	  -3.6259813732465768e-01	  -9.3194559433943824e-01	   7.8605815780466826e-01	   6.1815254795942653e-01	   2.3577485490253763e-01	   9.7180770618249745e-01	  -4.1539266160196492e-01	   9.0964220256496209e-01	  -8.8882043559137469e-01	   4.5825564183669254e-01	  -5.1645463879465381e-01	   8.5631454855530964e-01	   7.1040605967668424e-01	   7.0379203631090292e-01	   6.9912587999999998e-01	   7.2579974999999997e-01	   6.6340076999999997e-01	   3.0489387000000001e-01	   3.6399502000000000e-01	   7.2439869999999995e-01	
  -9.1997944365882345e-01	  -3.9196660986007698e-01	   6.9272435350959649e-01	   7.2120244734381733e-01	  -3.5460488704252952e-01	  -9.3501624268541716e-01	   6.7125502922830615e-01	  -7.4122647398464248e-01	  -9.8833371471411607e-02	  -9.9510399691871099e-01	  -8.0393982453985458e-01	  -5.9471065108910559e-01	  -9.8046392936718796e-01	   1.9669896596030678e-01	  -9.0807685648894332e-01	   4.1880356100343624e-01	  -3.2700480019634554e-01	  -9.4502267731972878e-01	   9.2923156000000007e-02	   2.8058377999999998e-02	   9.1785897000000005e-01	   9.6600699000000001e-01	   7.4839339999999999e-01	   7.3308368999999998e-02	
   8.1556086895926083e-01	  -5.7867129617980484e-01	   3.3027906195516921e-01	  -9.4388333030836680e-01	  -2.7683551142484791e-01	  -9.6091732194509993e-01	   0.0000000000000000e+00	   0.0000000000000000e+00	   0.0000000000000000e+00	   0.0000000000000000e+00	   0.0000000000000000e+00	   0.0000000000000000e+00	   0.0000000000000000e+00	   0.0000000000000000e+00	   0.0000000000000000e+00	   0.0000000000000000e+00	   0.0000000000000000e+00	   0.0000000000000000e+00	   2.1128225000000000e-01	   8.1354989000000003e-02	   2.7375570999999999e-01	   2.8627531000000001e-01	   2.4856544000000000e-01	   1.4113587999999999e-01	
  -1.9150953739034648e-01	   9.8149075242130301e-01	  -9.2664819417707101e-01	  -3.7592967989821363e-01	   5.4643347137124798e-01	  -8.3750251424408728e-01	  -4.7369200552252980e-02	   9.9887744935955003e-01	  -9.9551231767808090e-01	  -9.4632052451670889e-02	   1.4168244580891537e-01	  -9.8991216001704097e-01	   9.8208954929756842e-01	   1.8841474772559322e-01	  -9.7131732566426421e-01	  -2.3778699052812327e-01	   9.8946063303288923e-01	   1.4480212594487030e-01	   6.8432252000000005e-01	   4.0239464000000003e-01	   3.0524896999999999e-02	   2.9940380999999999e-01	   8.7777680999999996e-01	   6.3427180000000005e-01	
  -5.2547766298433829e-01	  -8.5080739636213687e-01	  -4.4774645140903635e-01	   8.9416056458033055e-01	   9.9603918077624043e-01	  -8.8915411254719481e-02	   8.3119234291352817e-01	   5.5598497199287666e-01	   3.8176142183616041e-01	   9.2426090299094288e-01	  -1.9655800161353229e-01	   9.8049219884795347e-01	  -7.0851643359526639e-01	   7.0569431294679186e-01	   3.6263116593057837e-02	  -9.9934227688763289e-01	  -9.0980913628241245e-01	  -4.1502690941317372e-01	   6.1183394999999996e-01	   9.8822667000000003e-02	   9.7448000000000007e-02	   8.4906601999999998e-01	   6.3877778999999996e-02	   8.6474401000000001e-01	
   9.6342475087337243e-01	  -2.6797900926113638e-01	   8.5637450119083958e-01	  -5.1635522047340698e-01	   6.8668003005481393e-01	  -7.2695979003237843e-01	  -4.0190357831818430e-01	  -9.1568199378115933e-01	  -6.7694702747007829e-01	   7.3603173980435466e-01	   9.4603844366234979e-01	   3.2405441381490080e-01	  -8.3485443998850287e-02	  -9.9650899676837579e-01	  -6.3258740830805005e-01	  -7.7448897400163441e-01	  -1.4182030132457651e-01	   9.8989241947405893e-01	   2.9009073000000002e-01	   9.3451954999999998e-01	   4.8748292999999998e-01	   8.8628922999999998e-02	   2.2435531000000000e-01	   4.7303903000000003e-01	
   1.6650781670639089e-02	   9.9986136612520271e-01	  -9.9944550293951340e-01	   3.3296946616515374e-02	  -4.9933879392935143e-02	  -9.9875252574838169e-01	  -7.5229117051681516e-01	   6.5883077854820971e-01	   1.3188401047511980e-01	  -9.9126515513307467e-01	   5.5386081729125558e-01	   8.3260926914697653e-01	  -9.6521321556199702e-01	  -2.6146404820638330e-01	  -6.7126567831756867e-01	  -7.4121683002536742e-01	   6.4621320625151879e-01	  -7.6315692492837406e-01	   2.2582717999999999e-01	   8.9524625999999996e-01	   9.5081552000000003e-01	   8.7680970999999996e-01	   4.0448233000000000e-01	   1.7514840000000001e-01	
  -7.4201358545090745e-01	  -6.7038484395628217e-01	   1.0116832198742230e-01	   9.9486932339189615e-01	   5.9187704678702957e-01	  -8.0602826345399592e-01	   3.6130223013010870e-01	   9.3244876454581138e-01	  -7.3892139700601989e-01	   6.7379163622493254e-01	  -8.9525012738836951e-01	  -4.4556392292364538e-01	   9.2009661906656215e-02	  -9.9575811426059835e-01	   3.5700835630702121e-01	  -9.3410119019673610e-01	  -8.9319068272752267e-01	   4.4967811186307699e-01	   5.0396200000000002e-01	   1.5087758000000000e-02	   5.2151011999999997e-02	   5.0691620000000004e-01	   1.2552785000000000e-01	   8.4033471999999998e-01	
   8.4951396439954885e-01	  -5.2756613262240593e-01	   4.4334795141967598e-01	  -8.9634959361399646e-01	  -9.6253412761652890e-02	  -9.9535686089549558e-01	   7.4105659788304568e-01	  -6.7144256547675463e-01	   9.8329762531988121e-02	  -9.9515388649213588e-01	  -5.9532075929784134e-01	  -8.0348814151114989e-01	  -9.8066251560080564e-01	  -1.9570649068311355e-01	   2.7530757076543133e-01	  -9.6135619906423708e-01	   9.8376828585870646e-01	   1.7944347226528568e-01	   5.5095393000000004e-01	   6.6784257999999996e-01	   3.7648691000000001e-01	   9.1186986000000003e-01	   3.7153010000000000e-02	   9.2893168999999998e-01	
   4.1598492126574613e-02	   9.9913440810173049e-01	  -9.9653913090559065e-01	   8.3124969617619254e-02	  -1.2450754250817361e-01	  -9.9221866131340997e-01	  -9.2742934144089262e-01	   3.7399841795723177e-01	   7.2025036673097553e-01	  -6.9371421293202240e-01	  -4.0853330513884745e-01	   9.1274341333823350e-01	   3.7521181552209466e-02	  -9.9929583254155829e-01	  -4.1225435011456607e-01	  -9.1106879587197853e-01	   3.3509502579879913e-01	  -9.4218433636146925e-01	   5.9096868999999996e-01	   3.3959106999999999e-01	   4.7529394000000003e-01	   6.2421705999999999e-01	   5.4857096000000005e-01	   5.1221454000000000e-01	
  -9.2729952923782677e-01	   3.7432016119266798e-01	   7.1976883384939017e-01	  -6.9421381851637687e-01	  -4.0758307233937163e-01	   9.1316813300859256e-01	  -3.5974127672176670e-01	   9.3305209598531702e-01	  -7.4117242764518654e-01	  -6.7131470451535680e-01	   8.9300190750586805e-01	  -4.5005287821641704e-01	   9.8673135002918536e-02	   9.9511989851911609e-01	  -1.5672294418871132e-02	  -9.9987718205169995e-01	   6.8284812752188961e-01	   7.3056035667140407e-01	   6.6383354999999999e-01	   8.5298914000000003e-01	   1.7946259000000001e-01	   1.7178346999999999e-01	   8.6398741000000001e-01	   6.5807101000000001e-01	
  -2.6165925596843076e-01	  -9.6516031505965227e-01	  -8.6306886753209455e-01	   5.0508625985752964e-01	   7.1331917142435808e-01	   7.0083932515125558e-01	   0.0000000000000000e+00	   0.0000000000000000e+00	   0.0000000000000000e+00	   0.0000000000000000e+00	   0.0000000000000000e+00	   0.0000000000000000e+00	   0.0000000000000000e+00	   0.0000000000000000e+00	   0.0000000000000000e+00	   0.0000000000000000e+00	   0.0000000000000000e+00	   0.0000000000000000e+00	   4.5499264000000000e-01	   9.2199936000000005e-01	   8.3559209000000001e-01	   9.5727669999999998e-01	   7.9517086999999997e-01	   6.9727063000000006e-02	
   9.9896741762909758e-01	  -4.5432350978703566e-02	   9.9587180296909583e-01	  -9.0770876668028605e-02	   9.9071954897424441e-01	  -1.3592194554327788e-01	   2.5961515744751829e-01	  -9.6571215692021828e-01	  -8.6519994004700063e-01	  -5.0142702733564992e-01	  -7.0885319476528974e-01	   7.0535604361984605e-01	   4.9714187251466685e-01	   8.6766926797749999e-01	   2.1547250975511958e-01	  -9.7650990652416314e-01	   3.0322165707031912e-01	   9.5292005261906931e-01	   2.1536032999999999e-01	   2.0308403999999999e-01	   1.0015706000000001e-01	   5.1484876000000002e-01	   6.2204050000000000e-01	   7.9337672999999997e-02	
  -3.8823908547328673e-01	   9.2155868641712990e-01	  -6.9854082502173198e-01	  -7.1557020324909981e-01	   9.3064078761767155e-01	  -3.6593404381440087e-01	  -8.5960193192855783e-01	   5.1096430269118698e-01	   4.7783096275061809e-01	  -8.7845180347974550e-01	   3.8113094497129678e-02	   9.9927343206344321e-01	  -5.4335514207363478e-01	  -8.3950294197348718e-01	  -1.3715252367112149e-01	  -9.9054994081603098e-01	   8.0461465951714883e-01	  -5.9379731364338684e-01	   7.7087192000000004e-01	   3.5364733999999998e-01	   7.2887968999999997e-01	   5.4184500999999996e-01	   7.1009526999999995e-01	   1.4152586000000000e-01	
  -8.6908894630552125e-01	  -4.9465584339979135e-01	   5.1063119318088224e-01	   8.5979985144838711e-01	  -1.8478904959086769e-02	  -9.9982925045805349e-01	   2.5180272903967071e-02	   9.9968292666048952e-01	  -9.9873190771296350e-01	   5.0344577821495255e-02	  -7.5476956892190999e-02	  -9.9714754624292901e-01	   9.9493084696795087e-01	  -1.0056147250133141e-01	   4.7261510437382181e-01	  -8.8126895050133336e-01	  -5.1638289806541060e-01	   8.5635781224063567e-01	   5.5639775000000002e-01	   2.6303924999999999e-02	   9.2759762000000001e-01	   6.2920050000000005e-01	   9.1344391000000003e-01	   8.4908245000000004e-01	
   5.5036746343995024e-01	  -8.3492254442353819e-01	  -3.9419131037335009e-01	  -9.1902840588642376e-01	  -9.8426760664045188e-01	  -1.7668412073040599e-01	   6.4230533583316463e-01	  -7.6644886036854776e-01	  -1.7488771112049120e-01	  -9.8458838531593273e-01	  -8.6696795588184628e-01	  -4.9836388660701841e-01	  -9.3882857699807121e-01	   3.4438481820744743e-01	  -2.8642147423298564e-01	  -9.5810372042811898e-01	   9.9342939110587314e-01	  -1.1444669015316276e-01	   2.2983102999999999e-01	   1.8224955000000001e-01	   7.4102641999999996e-01	   5.9038179000000002e-01	   4.2024221000000000e-01	   2.7278266000000001e-01	
   7.0811033598833018e-01	   7.0610180007311563e-01	   2.8404958670118254e-03	   9.9999596578347727e-01	  -7.0408756702280362e-01	   7.1011315856271029e-01	  -6.2687469629221304e-01	  -7.7912009032532692e-01	  -2.1405623029709131e-01	   9.7682133999570186e-01	   8.9524756500610325e-01	  -4.4556907135778945e-01	  -9.0835986054199724e-01	  -4.1818938742646655e-01	   1.0624164643778054e-01	  -9.9434034040774466e-01	  -9.9403455006590324e-01	   1.0906563746330598e-01	   1.1214706000000001e-01	   6.9831628999999995e-01	   8.2169175000000005e-01	   8.4906373000000002e-01	   4.9740588000000002e-01	   4.3108801000000002e-01	
  -9.9483019184471644e-01	  -1.0155239728438120e-01	   9.7937422121159046e-01	   2.0205478174542360e-01	  -9.5379189690667587e-01	  -3.0046799728950335e-01	  -6.6518400898215513e-01	   7.4667947219300745e-01	  -1.1506046838885640e-01	  -9.9335848947604866e-01	   8.1825677625868320e-01	   5.7485289257926442e-01	  -9.7352217722827394e-01	   2.2859258615432210e-01	   7.3757222567199154e-01	  -6.7526825182090766e-01	   5.8591804486351851e-01	   8.1037031331565434e-01	   3.7068087999999999e-01	   6.9184524999999997e-01	   1.1459241000000001e-01	   2.1402615000000000e-01	   8.9214740000000003e-01	   1.6750271000000000e-01	
   7.8015643198137097e-01	  -6.2558448001696498e-01	   2.1728811672380707e-01	  -9.7610751166591336e-01	  -4.4111898827097540e-01	  -8.9744862704602268e-01	   9.6573902584698812e-01	   2.5951519022228825e-01	   8.6530373208777911e-01	   5.0124789399553693e-01	   7.0557614072944186e-01	   7.0863411548792010e-01	   4.9750109753007798e-01	   8.6746334675095516e-01	   9.1577618796166516e-01	  -4.0168890146779118e-01	   5.9107883729823729e-01	  -8.0661379116536547e-01	   9.8703786999999998e-01	   4.3437271999999999e-01	   3.2516414000000000e-02	   7.7027080000000003e-01	   2.0011614000000000e-01	   3.8183534000000002e-01	
   4.1259941700046432e-01	   9.1091257598678310e-01	  -6.5952344218175396e-01	   7.5168399558107568e-01	  -9.5683739248512645e-01	  -2.9062381929612052e-01	  -4.0341961766395240e-01	  -9.1501508844601598e-01	  -6.7450522416774095e-01	   7.3827007427527869e-01	   9.4763689695612952e-01	   3.1934982625227465e-01	  -9.0085405140851074e-02	  -9.9593404389076323e-01	   6.6704805222843755e-01	  -7.4501469516932861e-01	  -9.9994945033783156e-01	   1.0054688909580662e-02	   4.3290904999999998e-02	   9.4396088000000000e-01	   2.3491607000000000e-01	   5.2444398000000003e-01	   1.5855799000000001e-01	   7.6715111000000002e-01	
  -9.9986185469110500e-01	  -1.6621417919766058e-02	   9.9944745693267301e-01	   3.3238243497706516e-02	  -9.9875692121891646e-01	  -4.9845885660815860e-02	  -9.4629903899246515e-01	   3.2329263647960960e-01	   7.9096374239612599e-01	  -6.1186302242798984e-01	  -5.5067741962221006e-01	   8.3471814375765452e-01	   2.5124728357057041e-01	  -9.6792293210689528e-01	   9.5154189424072699e-01	  -3.0751914331431329e-01	   9.4079473019810589e-01	   3.3897680692264642e-01	   1.2181277000000000e-01	   1.9757331000000000e-02	   7.9871990999999998e-01	   7.6268398000000004e-01	   8.4783151000000001e-02	   9.3325725999999998e-01	
   5.6490996862091036e-01	  -8.2515254792839499e-01	  -3.6175345470544423e-01	  -9.3227379991538761e-01	  -9.7362623411322713e-01	  -2.2814897818420188e-01	  -3.2032131924061196e-03	   9.9999486969946205e-01	  -9.9997947885048799e-01	  -6.4063935179195109e-03	   9.6095081099844566e-03	  -9.9995382761099727e-01	   9.9991791624418713e-01	   1.2812524102720593e-02	   8.2333878758382606e-01	   5.6755020999026629e-01	  -8.2695784171184272e-01	  -5.6226393093572247e-01	   9.8265237000000005e-02	   4.4245842000000002e-01	   7.7299152000000004e-01	   6.9397357000000004e-01	   7.6429570999999996e-01	   5.0760293999999995e-01	
   7.7226552198096976e-01	   6.3529990048752594e-01	   1.9278807288107916e-01	   9.8124041852891475e-01	  -4.7449835851054584e-01	   8.8025638752058910e-01	   9.6171465811051815e-01	  -2.7405276202835332e-01	   8.4979016724926149e-01	  -5.2712111667668204e-01	   6.7279666221308898e-01	  -7.3982744698674618e-01	   4.4428665670705564e-01	  -8.9588468380259012e-01	   9.1680476488741347e-01	   3.9933572727685468e-01	   5.6859337999752435e-01	   8.2261872591316010e-01	   7.1925349000000005e-01	   8.1300481000000002e-01	   2.1964269000000000e-01	   7.0672789999999996e-01	   5.1488555000000003e-01	   1.5313890999999999e-01	
  -9.0694482304821655e-01	   4.2124943673082715e-01	   6.4509782410792171e-01	  -7.6409999171000187e-01	  -2.6319144082048102e-01	   9.6474362681431547e-01	  -9.9943046583864348e-01	  -3.3745280463379927e-02	   9.9772251209289564e-01	   6.7452122746742949e-02	  -9.9487808423876500e-01	  -1.0108213245378629e-01	   9.9090042227391661e-01	   1.3459700270575747e-01	   9.2064346737654790e-01	  -3.9040441336758380e-01	   8.9221310660150255e-01	  -4.5161462820472931e-01	   8.8811552999999999e-01	   9.2103995000000005e-01	   4.0514995999999998e-01	   7.1120386999999996e-01	   7.2868982000000004e-01	   2.5699664999999999e-01	
  -3.8899510050783093e-01	  -9.2123982316273245e-01	  -6.9736562356180509e-01	   7.1671555520600694e-01	   9.3153872216409195e-01	   3.6364214429695940e-01	  -6.9798068002931324e-01	   7.1611658988311211e-01	  -2.5645940611634881e-02	  -9.9967108877377486e-01	   7.3378142216551390e-01	   6.7938562281281456e-01	  -9.9868457146028899e-01	   5.1275010747721221e-02	   9.3122618540834412e-01	   3.6444175338430190e-01	  -3.8820405584729034e-01	   9.2157344309811462e-01	   7.8680298999999998e-01	   8.4518658000000002e-01	   7.7873101000000000e-01	   2.5016511000000002e-01	   5.1224400999999997e-01	   4.6802475999999998e-01	
   9.7723285652347014e-01	  -2.1216961170483095e-01	   9.0996811173804248e-01	  -4.1467823142757487e-01	   8.0126861783460157e-01	  -5.9830477356730760e-01	   9.9008416044850467e-01	   1.4047546130545205e-01	   9.6053328954204087e-01	   2.7816505834044980e-01	   9.1193343066963939e-01	   4.1033817520077509e-01	   8.4524840063690831e-01	   5.3437359704681198e-01	   9.9734739639296888e-01	  -7.2788535554483239e-02	   9.3773814823449908e-01	  -3.4734300820044234e-01	   8.2142579000000004e-01	   5.6989555999999997e-01	   6.4044789000000002e-01	   4.2489619000000001e-01	   4.9166327999999998e-01	   1.1958305000000000e-01	
  -2.0002569377603280e-01	   9.7979065204227012e-01	  -9.1997944365883355e-01	  -3.9196660986005327e-01	   5.6806474673112639e-01	  -8.2298386589367678e-01	  -7.2076081992424690e-01	  -6.9318384319178084e-01	   3.8992319075745255e-02	   9.9923951035429703e-01	   6.6455254818868348e-01	  -7.4724153437555074e-01	  -9.9695919810619049e-01	   7.7925331641652398e-02	   8.2334573275797152e-01	  -5.6754013457132613e-01	  -5.3500436665411166e-01	  -8.4484929286887189e-01	   8.2810125000000001e-01	   8.8958610000000005e-01	   2.3387036000000000e-01	   6.0726539000000002e-01	   5.9226716999999995e-01	   9.1504801999999996e-02	
  -9.7722625908859828e-01	  -2.1219999657800118e-01	   9.0994232290459254e-01	   4.1473481766906689e-01	  -8.0121280530828987e-01	  -5.9837951219106789e-01	  -9.2250142764672360e-01	   3.8599367351001590e-01	   7.0201776802048643e-01	  -7.1215942975118596e-01	  -3.7272335881780599e-01	   9.2794250780507570e-01	  -1.4342106767068850e-02	  -9.9989714669734009e-01	   9.8340047534105446e-01	  -1.8144835380622268e-01	   8.1958476294514349e-01	   5.7295795338589461e-01	   8.2067926000000002e-01	   5.2906036000000001e-01	   5.3494701999999998e-02	   7.1422262999999997e-01	   7.9060721000000000e-01	   9.6224510999999999e-02	
   4.5095128381982519e-01	  -8.9254856429286322e-01	  -5.9328587924250298e-01	  -8.0499184187881689e-01	  -9.8603734165298595e-01	   1.6652435517338776e-01	   3.8113944795434396e-01	   9.2451756133296781e-01	  -7.0946544242611587e-01	   7.0474022590108731e-01	  -9.2194998209229240e-01	  -3.8730896003064746e-01	   6.6824279937687091e-03	  -9.9997767232879164e-01	   9.9705214540067044e-01	   7.6726914130051851e-02	  -6.5330149866188891e-01	  -7.5709784826409987e-01	   1.7349624000000000e-01	   6.4909486000000005e-01	   7.9113212000000002e-02	   6.6481904000000003e-01	   6.6355954999999994e-02	   2.9305397999999999e-01	
   7.2292248449981977e-01	   6.9092914354845958e-01	   4.5233837190784228e-02	   9.9897642613477000e-01	  -6.5752136856897547e-01	   7.5343589632773766e-01	   8.7522521019673649e-01	  -4.8371565142765277e-01	   5.3203833712784310e-01	  -8.4672026539243739e-01	   5.6081520694138916e-02	  -9.9842619308421232e-01	  -4.3387041565247925e-01	  -9.0097528402367666e-01	   9.6693322421419503e-01	   2.5502968437172424e-01	   2.9850674269040822e-01	   9.5440752541477925e-01	   8.6126411999999997e-01	   6.0531637000000005e-01	   8.1055871000000002e-01	   5.9235501000000002e-01	   5.1651091999999998e-01	   9.8904495999999997e-01	
  -9.9782888428413075e-01	  -6.5859833649097255e-02	   9.9132496462342645e-01	   1.3143368865843433e-01	  -9.8051648254226731e-01	  -1.9643682817368943e-01	  -9.9508693085779443e-01	  -9.9005050558116064e-02	   9.8039599992796977e-01	   1.9703726379859296e-01	  -9.5607156232936930e-01	  -2.9313336163780285e-01	   9.2235263334952733e-01	   3.8634909052978539e-01	   9.8640602582337500e-01	   1.6432635886958399e-01	   9.9944693814373098e-01	  -3.3253839404213829e-02	   6.0647854000000001e-01	   2.6190202000000001e-01	   4.6687824000000000e-01	   4.3075291999999998e-01	   2.2676408999999999e-03	   4.7345081000000000e-01	
   7.6431572054579078e-01	  -6.4484221273623887e-01	   1.6835704134686261e-01	  -9.8572608093168090e-01	  -5.0695985381382191e-01	  -8.6196966687991305e-01	  -7.1926424865188743e-01	   6.9473659800764476e-01	   3.4682118777528310e-02	  -9.9939839435387401e-01	   6.6937303244353863e-01	   7.4292647243003895e-01	  -9.9759430127420279e-01	  -6.9322507638104269e-02	  -1.0174948734309763e-01	   9.9481005313849580e-01	  -9.9774045759929064e-01	  -6.7186153852993036e-02	   2.7647453000000000e-01	   8.0497854999999996e-01	   3.0320741000000001e-01	   2.9287809999999997e-01	   4.4433749000000000e-01	   5.2317800999999997e-01	
   5.6806474673118845e-01	   8.2298386589363381e-01	  -3.5460488704246135e-01	   9.3501624268544303e-01	  -9.7094181742602359e-01	   2.3931566428767323e-01	   8.5429661102543653e-01	   5.1978582165200893e-01	   4.5964539921909187e-01	   8.8810253179276644e-01	  -6.8949597372828519e-02	   9.9762014465533166e-01	  -5.7745221395344337e-01	   8.1642448554674463e-01	   5.7520443035608007e-02	   9.9834432869275491e-01	   9.1307113291534647e-01	   4.0780032643033248e-01	   3.0860159999999998e-01	   2.4184407999999999e-01	   3.4614645999999999e-01	   2.9824657999999998e-01	   5.2289269000000005e-01	   3.2277284000000001e-01	
  -9.9918001329857897e-01	   4.0488282559914650e-02	   9.9672139795069703e-01	  -8.0910165413304300e-02	  -9.9262818602013247e-01	   1.2119935774739568e-01	   1.3361679309552590e-01	  -9.9103307341524549e-01	  -9.6429310520573486e-01	  -2.6483732224269602e-01	  -3.9130829773895970e-01	   9.2025964603509469e-01	   8.5972238549463675e-01	   5.1076160767956236e-01	  -9.3382001999443964e-02	   9.9563035394797794e-01	  -1.7363245620475817e-01	  -9.8481052500077537e-01	   7.6785004999999995e-01	   1.8282825000000000e-01	   9.5235906000000004e-01	   2.8677187999999998e-01	   1.0750802000000000e-01	   6.9395834999999995e-01	
   5.1761328772264692e-01	  -8.5561468218641057e-01	  -4.6415296874590467e-01	  -8.8575505734055127e-01	  -9.9811677604023630e-01	  -6.1342492507598247e-02	  -7.9685556975887750e-01	   6.0416984445125588e-01	   2.6995759811149062e-01	  -9.6287221126267575e-01	   3.6662113845113764e-01	   9.3037032457016366e-01	  -8.5424579044374982e-01	  -5.1986933888154341e-01	   1.0447355814377875e-01	   9.9452766459700781e-01	  -9.2939962074977001e-01	   3.6907498553841833e-01	   4.1472973000000002e-01	   7.3647012999999995e-01	   6.2006707999999999e-01	   9.0851057999999996e-01	   9.7236020999999995e-01	   8.7890208999999997e-01	
   6.0149081500194213e-01	   7.9887971526901302e-01	  -2.7641759893659879e-01	   9.6103762205135634e-01	  -9.3401610873245167e-01	   3.5723088980138462e-01	   7.0232896017099022e-01	   7.1185253508373181e-01	  -1.3468063410271196e-02	   9.9990930152088142e-01	  -7.2124698211189575e-01	   6.9267798492119181e-01	  -9.9963722253595377e-01	  -2.6933683754806422e-02	  -1.4624013188850138e-01	   9.8924912121529518e-01	   9.9112896919393234e-01	   1.3290359823787024e-01	   7.9939698000000003e-01	   7.3654421000000003e-01	   1.9862667000000001e-01	   6.7012808999999995e-01	   3.1366692000000002e-01	   2.8261652999999998e-01	
  -9.9821692686750052e-01	   5.9690593188568175e-02	   9.9287406616959373e-01	  -1.1916832099118137e-01	  -9.8399047132900197e-01	   1.7822107713098520e-01	   2.9541977843666539e-01	  -9.5536754943238023e-01	  -8.2545430901686301e-01	  -5.6446893955778743e-01	  -7.8313083659536964e-01	   6.2185697131529882e-01	   3.6274963254901371e-01	   9.3188663692830986e-01	  -2.3786656762819894e-01	   9.7129784103784533e-01	  -3.5191947910565352e-01	  -9.3603027740880551e-01	   2.3413262000000001e-01	   2.6721027000000003e-01	   7.6888584000000004e-01	   7.7263203999999996e-01	   6.9289486000000000e-01	   4.4874707000000003e-01	
   8.0764186542940986e-01	  -5.8967331396774525e-01	   3.0457076558859375e-01	  -9.5248971057370369e-01	  -3.1567366287893989e-01	  -9.4886781933238384e-01	   0.0000000000000000e+00	   0.0000000000000000e+00	   0.0000000000000000e+00	   0.0000000000000000e+00	   0.0000000000000000e+00	   0.0000000000000000e+00	   0.0000000000000000e+00	   0.0000000000000000e+00	   0.0000000000000000e+00	   0.0000000000000000e+00	   0.0000000000000000e+00	   0.0000000000000000e+00	   4.2911841000000001e-01	   9.6626665000000000e-01	   3.4347333000000002e-01	   1.6947193999999999e-01	   7.7074662999999999e-01	   3.6023817000000002e-01	
  -8.1358674667791564e-02	   9.9668488804451150e-01	  -9.8676153211260087e-01	  -1.6217792310543536e-01	   2.4192189559947266e-01	  -9.7029572627604510e-01	   2.5961515744751851e-01	   9.6571215692021817e-01	  -8.6519994004700029e-01	   5.0142702733565037e-01	  -7.0885319476528963e-01	  -7.0535604361984616e-01	   4.9714187251466596e-01	  -8.6766926797750055e-01	  -9.8363265813685163e-01	   1.8018544293763469e-01	   9.4138876786965131e-01	   3.3732356533284152e-01	   2.9871193000000001e-01	   3.8529908000000002e-01	   8.0677697999999998e-01	   1.4093933000000000e-01	   5.2821147000000002e-01	   7.3821656999999996e-01	
  -7.4467524743515934e-01	  -6.6742698166719649e-01	   1.0908244828523155e-01	   9.9403270543584221e-01	   5.8221324909988448e-01	  -8.1303612009095627e-01	   8.5429661102543664e-01	  -5.1978582165200882e-01	   4.5964539921909220e-01	  -8.8810253179276621e-01	  -6.8949597372827923e-02	  -9.9762014465533166e-01	  -5.7745221395344271e-01	  -8.1642448554674507e-01	  -9.8309262225698912e-01	  -1.8310897319322403e-01	  -2.8925445813978112e-01	  -9.5725224389721941e-01	   2.9750174000000001e-01	   5.5987847999999996e-01	   3.0099556999999999e-01	   1.4465523999999999e-01	   4.8145234999999997e-01	   1.7444746000000000e-01	
   9.9849737118800674e-01	  -5.4799632577599386e-02	   9.9399400053872022e-01	  -1.0943457814160329e-01	   9.8650342184111783e-01	  -1.6374064460531937e-01	  -6.4053613143159804e-01	  -7.6792803330171666e-01	  -1.7942692866128507e-01	   9.8377130333791407e-01	   8.7039499295030420e-01	  -4.9235409640525979e-01	  -9.3561195454235624e-01	  -3.5303012692606267e-01	  -6.8165581745635950e-01	  -7.3167297785821117e-01	  -5.9749146931441366e-01	   8.0187526716846869e-01	   2.1782667000000000e-01	   8.5826075999999996e-01	   7.8268795000000002e-01	   5.5574670000000000e-02	   7.9769150000000000e-01	   8.3431641000000001e-01	
  -7.4301184839056722e-01	   6.6927826287070813e-01	   1.0413321369753466e-01	  -9.9456335836638565e-01	   5.8826742521405695e-01	   8.0866645561196859e-01	  -7.5363841693838163e-01	   6.5728923353011803e-01	   1.3594172697077989e-01	  -9.9071683485656081e-01	   5.4873660111812550e-01	   8.3599530058088678e-01	  -9.6303969373640386e-01	  -2.6935951493885163e-01	   1.2005287676687178e-01	  -9.9276749885358273e-01	   9.9987166960818452e-01	  -1.6020122188718264e-02	   5.2828772999999998e-05	   2.6204238000000002e-01	   2.5409383000000002e-01	   9.0209514000000002e-01	   3.1403300000000001e-01	   4.6931322999999997e-03	
  -6.9823826688349688e-02	  -9.9755933819828246e-01	  -9.9024926645319056e-01	   1.3930682068340336e-01	   2.0810981300653567e-01	   9.7810546759047656e-01	   3.2229656875685747e-01	   9.4663874934821690e-01	  -7.9224984353511252e-01	   6.1019684153442633e-01	  -8.3297538109590530e-01	  -5.5331005276258205e-01	   2.5531962916282042e-01	  -9.6685670446253813e-01	   9.2182434455352835e-01	  -3.8760789180363420e-01	  -9.6683230407178555e-01	  -2.5541201186170220e-01	   2.7460917000000001e-01	   1.4870910000000001e-01	   2.9471975000000000e-01	   4.2892738000000002e-01	   4.2410953000000001e-01	   7.5441102000000004e-01	
   9.4171326750430784e-01	  -3.3641658967173427e-01	   7.7364775638728001e-01	  -6.3361593180484965e-01	   5.1539544562537798e-01	  -8.5695246929372815e-01	   9.2338248627742203e-01	  -3.8388121084018489e-01	   7.0527043192774697e-01	  -7.0893837380159441e-01	   3.7908624358536497e-01	  -9.2536134559659300e-01	  -5.1872356968984297e-03	  -9.9998654620241012e-01	   7.4041753051865178e-01	  -6.7214721638987796e-01	   9.9870554609847373e-01	   5.0864842397763364e-02	   4.8215411000000002e-01	   1.3130475000000000e-01	   2.3355746999999999e-01	   1.2815959000000000e-02	   2.0428346999999999e-02	   3.5746071000000001e-01	
  -3.6785126480565228e-02	   9.9932319820456927e-01	  -9.9729370893961766e-01	  -7.3520460481836081e-02	   1.1015627692379670e-01	  -9.9391427932910181e-01	  -7.0109158875522237e-01	  -7.1307123359218338e-01	  -1.6941168353356267e-02	   9.9985648810958028e-01	   7.2484621002767113e-01	  -6.8891071395974179e-01	  -9.9942599362964646e-01	  -3.3877474188519920e-02	   7.3837836846783933e-01	  -6.7438667319185053e-01	  -6.8679888293419711e-01	  -7.2684750422653244e-01	   5.7454265999999998e-01	   4.6714443000000000e-01	   4.3695643000000001e-01	   8.0304882000000000e-01	   6.4094145999999996e-01	   8.5049602999999996e-01	
  -8.2200207544798909e-01	  -5.6948449316833760e-01	   3.5137482408160325e-01	   9.3623487063963939e-01	   2.4434040613748967e-01	  -9.6968952037678879e-01	  -9.9748219817705186e-01	   7.0917306208545264e-02	   9.8994147136024691e-01	  -1.4147750097138964e-01	  -9.7741579166103643e-01	   2.1132527111452976e-01	   9.5996823343778093e-01	  -2.8010889095197644e-01	   8.6031874330699620e-01	   5.0975647118469292e-01	   7.7954613094092184e-01	   6.2634481696190247e-01	   2.0267938999999999e-01	   7.5787746000000000e-01	   8.9239966999999998e-01	   8.5751299999999997e-01	   3.8246365999999998e-01	   3.6464211000000002e-01	
   8.8361558010261387e-01	  -4.6821309956036172e-01	   5.6155298680015764e-01	  -8.2744077915934378e-01	   1.0877835627693967e-01	  -9.9406602859452309e-01	   4.0265647202791582e-01	   9.1535117060832571e-01	  -6.7573553106806450e-01	   7.3714414604754264e-01	  -9.4683504195546986e-01	  -3.2171944816125697e-01	  -8.6762984104321775e-02	  -9.9622898200630217e-01	   7.8437294088974829e-01	   6.2028952078845201e-01	  -7.2785876663711099e-02	  -9.9734759044091292e-01	   8.8104267999999997e-01	   2.4045532000000000e-01	   9.3680103000000003e-01	   1.5520083000000001e-01	   3.3954646999999999e-01	   9.0058081000000001e-01	
   1.4125200327958973e-01	   9.8997367215977150e-01	  -9.6009574313900559e-01	   2.7967152877323909e-01	  -4.1248289739677146e-01	  -9.1096534476080071e-01	   9.3183030057331095e-01	   3.6289432474682354e-01	   7.3661541813309395e-01	   6.7631185541036265e-01	   4.4097083239848112e-01	   8.9752143426983999e-01	   8.5204548462785593e-02	   9.9636348032294564e-01	  -2.2763293060295117e-01	   9.7374701483758708e-01	   4.9087872394815596e-01	   8.7122791413902145e-01	   2.9061355999999999e-01	   1.0857216000000000e-01	   8.1842287000000002e-01	   6.5954285999999995e-01	   1.9406074000000001e-01	   7.8209318000000000e-02	
  -9.7217242575797047e-01	   2.3426646067216583e-01	   8.9023845080827313e-01	  -4.5549478669078730e-01	  -7.5875812269262266e-01	   6.5137248272241821e-01	   2.4244774563005705e-01	  -9.7016446576799709e-01	  -8.8243818127780627e-01	  -4.7042837523167913e-01	  -6.7033804104743999e-01	   7.4205586765733533e-01	   5.5739428755376508e-01	   8.3024791972183265e-01	  -8.4240173233526960e-03	   9.9996451733655822e-01	  -4.6297800865409522e-01	  -8.8636976680316015e-01	   7.8175709000000004e-01	   6.6663192999999998e-01	   2.9098837000000000e-01	   4.6015492000000002e-01	   5.7753321000000002e-01	   5.9121053999999995e-01	
  -3.7417357837857412e-01	  -9.2735868640099184e-01	  -7.1998826648674608e-01	   6.9398623626222611e-01	   9.1297475050243893e-01	   4.0801605966555954e-01	   0.0000000000000000e+00	   0.0000000000000000e+00	   0.0000000000000000e+00	   0.0000000000000000e+00	   0.0000000000000000e+00	   0.0000000000000000e+00	   0.0000000000000000e+00	   0.0000000000000000e+00	   0.0000000000000000e+00	   0.0000000000000000e+00	   0.0000000000000000e+00	   0.0000000000000000e+00	   8.6923024000000004e-01	   9.2183324000000000e-01	   7.8424636000000003e-01	   4.4645807999999998e-01	   4.4735416000000000e-01	   4.7508096999999999e-01	
   9.9834512709925083e-01	   5.7506583946367665e-02	   9.9338598560563873e-01	   1.1482283571796033e-01	   9.8513898901690111e-01	   1.7175905309111936e-01	  -4.5649640217364967e-01	   8.8972525804459068e-01	  -5.8322206960502698e-01	  -8.1231275844075546e-01	   9.8897395505957908e-01	  -1.4808955470867505e-01	  -3.1970403505125811e-01	   9.4751745628877149e-01	  -5.0690601888934805e-01	   8.6200132715312672e-01	  -4.0457589840745811e-01	  -9.1450442449875446e-01	   5.8471562999999997e-02	   6.2220288999999995e-01	   7.9958209999999996e-01	   7.1316312999999998e-01	   1.3083591000000000e-01	   4.0891724000000002e-01	
  -7.9399039864778409e-01	   6.0793029769467233e-01	   2.6084150628973429e-01	  -9.6538163883331785e-01	   3.7977909552203531e-01	   9.2507720683436190e-01	   6.6988983707512773e-01	   7.4246050816421127e-01	  -1.0249521236691776e-01	   9.9473349769768005e-01	  -8.0721083930203796e-01	   5.9026321324753028e-01	  -9.7898946288372091e-01	  -2.0391084219002123e-01	  -9.8325033654418648e-01	  -1.8226018678182063e-01	  -8.0521861034573150e-02	   9.9675284293325639e-01	   6.0308786999999997e-01	   5.8031798000000001e-01	   6.4032250000000002e-01	   5.0770152999999996e-01	   3.3413441999999999e-01	   4.0280227000000002e-01	
  -4.7581915823842108e-02	  -9.9886733918300319e-01	  -9.9547192257306560e-01	   9.5056043304381610e-02	   1.4231483827358188e-01	   9.8982144188089005e-01	   9.1226350563795777e-01	  -4.0960382845030130e-01	   6.6444940743771230e-01	  -7.4733324892960096e-01	   3.0004238585842291e-01	  -9.5392587064634393e-01	  -1.1701396991134591e-01	  -9.9313026881954747e-01	  -4.5254713157775217e-01	  -8.9174048562389985e-01	   3.6573264090889535e-01	  -9.3071995539679120e-01	   4.8937023000000002e-01	   8.3442022999999999e-01	   5.1059741999999997e-01	   5.0578279999999998e-01	   2.8213843999999999e-01	   9.8950322999999996e-01	
   8.3457325372135027e-01	   5.5089698145203037e-01	   3.9302503165408270e-01	   9.1952777255138263e-01	  -1.7855689479838141e-01	   9.8392958859867596e-01	  -8.4427590656472851e-01	  -5.3590875491477630e-01	   4.2560361281138842e-01	   9.0490969978329538e-01	   1.2562215447761205e-01	  -9.9207815937273969e-01	  -6.3772312952378751e-01	   7.7026567499167875e-01	  -4.0937957496400174e-01	  -9.1236416172616797e-01	  -9.9984060579653444e-01	  -1.7853935152202679e-02	   9.2398216000000000e-01	   1.5579944000000001e-01	   4.4122167000000001e-01	   7.7711441999999997e-01	   2.6503160999999997e-01	   7.9971183999999995e-01	
  -9.6009574313900559e-01	   2.7967152877323909e-01	   8.4356767198727856e-01	  -5.3702288850472946e-01	  -6.5971571871032908e-01	   7.5151524966996774e-01	  -8.1476736325734589e-01	   5.7978801623582399e-01	   3.2769171245865569e-01	  -9.4478470647333923e-01	   2.8078233821489940e-01	   9.5977147204247215e-01	  -7.8523628317182748e-01	  -6.1919623673799373e-01	   6.2010447624689280e-01	  -7.8451924038774656e-01	   9.4440487797704609e-01	   3.2878477223430036e-01	   6.9464663999999998e-01	   2.9618580000000000e-01	   3.0666164000000001e-01	   7.8768561000000004e-01	   7.5464668000000001e-01	   9.6141726999999999e-01	
  -1.5901491042266105e-01	  -9.8727618135113193e-01	  -9.4942851652654614e-01	   3.1398326707995422e-01	   4.6096149143903931e-01	   8.8742013917326468e-01	   8.4444537027435695e-01	   5.3564168678530244e-01	   4.2617596675559183e-01	   9.0464028506359184e-01	  -1.2468072617644139e-01	   9.9219691418594691e-01	  -6.3674809071987337e-01	   7.7107189610606086e-01	   3.9454687419086476e-01	  -9.1887581536691776e-01	  -6.6310568401288017e-01	  -7.4852578568130190e-01	   7.1584581999999997e-01	   1.7961534000000001e-01	   2.1527963000000000e-01	   7.1880263000000000e-02	   4.2734028000000002e-01	   7.7789379999999997e-01	
   8.1533692251936329e-01	  -5.7898678981186935e-01	   3.2954859444669238e-01	  -9.4413861476915006e-01	  -2.7795064888586751e-01	  -9.6059535538327756e-01	  -4.5010936795180723e-01	  -8.9297343570904986e-01	  -5.9480311376404915e-01	   8.0387141748950841e-01	   9.8556227513601324e-01	   1.6931332442759869e-01	  -2.9241851171318312e-01	  -9.5629044437735911e-01	  -8.8401060979142121e-01	  -4.6746683494789204e-01	   1.5002903606549625e-01	   9.8868159097722563e-01	   4.7729588000000001e-01	   2.5766781000000000e-01	   2.0087194999999999e-01	   8.5330625000000004e-01	   4.6781430000000002e-01	   7.0114999000000000e-01	
   3.0494910619929472e-01	   9.5236864849083058e-01	  -8.1401208525650259e-01	   5.8084793625901809e-01	  -8.0141362186808363e-01	  -5.9811053049104579e-01	  -6.1094377096292440e-01	   7.9167399143940664e-01	  -2.5349541744320353e-01	  -9.6733658740652206e-01	   9.2068666347206718e-01	   3.9030253356168804e-01	  -8.7148014667059193e-01	   4.9043078406540053e-01	  -9.4027224616565952e-01	  -3.4042341736517695e-01	   5.6765873237931874e-01	  -8.2326396954652703e-01	   3.1790213000000000e-01	   8.8510661999999996e-01	   2.6729351000000001e-01	   7.2626886000000002e-01	   5.1450752000000000e-01	   7.7677015999999999e-01	
  -8.2797404060783353e-01	   5.6076642916595654e-01	   3.7108202384092454e-01	  -9.2860009238752694e-01	   2.1348147525482850e-01	   9.7694711203985962e-01	   6.7962611836191211e-01	   7.3355868152474368e-01	  -7.6216678480640621e-02	   9.9709127863068714e-01	  -7.8322380906238331e-01	   6.2173986917183566e-01	  -9.8838203584275730e-01	  -1.5198997079849186e-01	  -9.7406786574504767e-01	  -2.2625603400326777e-01	  -1.5135770090041240e-01	   9.8847905712672601e-01	   3.2520912000000002e-01	   2.6895616999999999e-01	   7.7605791000000002e-01	   2.0555739000000001e-01	   4.2505437000000001e-01	   8.3553280999999993e-02	
  -4.7674039025195353e-01	  -8.7904414013314203e-01	  -5.4543720060483014e-01	   8.3815169283153412e-01	   9.9680427800051319e-01	   7.9882609871459023e-02	   2.5599235628382327e-01	  -9.6667880576966003e-01	  -8.6893582704851213e-01	  -4.9492477051721523e-01	  -7.0087421593498600e-01	   7.1328488939379520e-01	   5.1009894305696368e-01	   8.6011572959234306e-01	  -9.7179523543899071e-01	   2.3582625040074887e-01	   7.2771144376645636e-01	  -6.8588341182109047e-01	   2.1080185000000001e-01	   9.0149820000000003e-01	   3.2529048999999999e-01	   4.4614658000000001e-01	   7.9254844000000002e-01	   4.1162875999999998e-01	
   9.8576979531480236e-01	  -1.6810089424215641e-01	   9.4348417870997470e-01	  -3.3141756821865154e-01	   8.7434661614457088e-01	  -4.8530196253110142e-01	  -8.2329283834542111e-01	  -5.6761686226638852e-01	   3.5562219534171935e-01	   9.3462979525603396e-01	   2.3773042518239323e-01	  -9.7133117161069149e-01	  -7.4706570836067199e-01	   6.6475019924146495e-01	  -9.0699411487381532e-01	  -4.2114329578453980e-01	  -7.1616031060600160e-01	   6.9793582048259661e-01	   2.1752021999999999e-01	   9.5274444999999999e-02	   7.1571107000000000e-01	   6.8751200000000002e-03	   8.7835876000000002e-01	   5.6977095000000000e-01	
  -5.4332754378152393e-01	   8.3952080389251593e-01	  -4.0959036033667245e-01	  -9.1226955266482224e-01	   9.8841099265815102e-01	   1.5180154673957888e-01	  -3.9694246632628577e-01	   9.1784349342728655e-01	  -6.8487335685361095e-01	  -7.2866211996512242e-01	   9.4065310510755529e-01	  -3.3936961539229532e-01	  -6.1896970144132979e-02	   9.9808254422516396e-01	  -5.5487893219794970e-01	  -8.3193110928902225e-01	   9.8621848270123191e-01	   1.6544819243037950e-01	   3.4247891000000003e-01	   7.6156133999999998e-01	   3.4203765000000003e-01	   2.0574508000000000e-01	   7.4966129000000004e-01	   5.3158874000000000e-01	
  -6.0152731617956856e-01	  -7.9885223157340268e-01	  -2.7632977577961060e-01	   9.6106287776481625e-01	   9.3396713298999123e-01	  -3.5735891550996196e-01	   6.3852898105525058e-01	   7.6959777829236453e-01	  -1.8456148070508702e-01	   9.8282097039081628e-01	  -8.7422468948858556e-01	   4.8552156727439638e-01	  -9.3187411967989164e-01	  -3.6278178712667908e-01	   2.3070227832574916e-01	  -9.7302438755424248e-01	  -9.9888752687982763e-01	  -4.7156215326313110e-02	   8.8175181000000002e-01	   1.3117706000000001e-01	   9.3655222000000005e-01	   7.9274891999999997e-01	   8.5791611999999995e-01	   5.8495111000000000e-01	
   5.0941693684086387e-01	  -8.6051983385606601e-01	  -4.8098876891934272e-01	  -8.7672675570753233e-01	  -9.9946458747636313e-01	  -3.2719082821852943e-02	   8.6589118629903616e-01	  -5.0023239948012954e-01	   4.9953509302070426e-01	  -8.6629365162212535e-01	  -8.0511771164128317e-04	  -9.9999967589268268e-01	  -5.0092938168159262e-01	  -8.6548815969260795e-01	   1.0639734471895377e-02	  -9.9994339642320129e-01	   8.7155953705201905e-01	  -4.9028968311975557e-01	   4.9216027000000001e-01	   7.4792800999999998e-01	   3.4813263000000000e-01	   5.3811417000000000e-02	   8.9557816000000001e-01	   3.9089641000000003e-01	
   8.6698983614643987e-01	   4.9832582114392726e-01	   5.0334275196246125e-01	   8.6408684404222713e-01	   5.7962639524250931e-03	   9.9998320152100251e-01	  -9.4960746695792975e-01	  -3.1344163523333080e-01	   8.0350868260451125e-01	   5.9529303454614924e-01	  -5.7642822257561677e-01	  -8.1714778603280525e-01	   2.9125240604167435e-01	   9.5664624390363628e-01	  -6.6710396192294641e-01	  -7.4496463270863278e-01	  -9.7949608243963615e-01	  -2.0146320876379759e-01	   5.0362985999999998e-01	   1.3484335000000000e-01	   4.2124001999999999e-01	   2.0763475999999999e-02	   7.6445532999999999e-01	   8.8388739999999993e-02	
  -9.2526234879045144e-01	   3.7932780798509497e-01	   7.1222082817844579e-01	  -7.0195547715564466e-01	  -3.9271988388528800e-01	   9.1965813909361227e-01	  -8.5960193192855783e-01	   5.1096430269118698e-01	   4.7783096275061809e-01	  -8.7845180347974550e-01	   3.8113094497129678e-02	   9.9927343206344321e-01	  -5.4335514207363478e-01	  -8.3950294197348718e-01	   6.0153433366254661e-01	  -7.9884694743433549e-01	   9.8918027145950771e-01	   1.4670511427791014e-01	   4.2384922000000003e-01	   6.7293228000000005e-01	   9.5639295000000002e-01	   6.3163396000000005e-01	   9.8132275000000002e-01	   7.9359192999999995e-01	
   4.5231688414452492e-01	  -8.9185729593797036e-01	  -5.9081887263557686e-01	  -8.0680422640044835e-01	  -9.8679158727313487e-01	   1.6199494833780190e-01	   3.3979693455422705e-01	   9.4049882682943864e-01	  -7.6907608653510073e-01	   6.3915723661698010e-01	  -8.6245632784140425e-01	  -5.0613148742823755e-01	   1.8295605376029139e-01	  -9.8312109243595291e-01	   9.9248663120836556e-01	   1.2235312367352814e-01	  -6.8509484984950741e-01	  -7.2845387411261731e-01	   6.5340657000000002e-01	   3.7631806000000001e-01	   6.8737937999999998e-01	   3.8239364999999997e-01	   7.2312133000000001e-01	   3.8303543000000001e-01	
   6.3572374820994915e-01	   7.7191665091633643e-01	  -1.9171063192378632e-01	   9.8145149325240855e-01	  -8.7947375120652382e-01	   4.7594739303700928e-01	   9.7633506127417025e-01	  -2.1626337675797577e-01	   9.0646030374647568e-01	  -4.2229103439671445e-01	   7.9368289112766632e-01	  -6.0833170912852219e-01	   6.4334056453630584e-01	  -7.6558011861731845e-01	   7.8761668616488067e-01	   6.1616552619783260e-01	   4.5374208315913167e-01	   8.9113305514407426e-01	   7.6532071000000002e-01	   2.0263018999999999e-01	   8.2794668999999999e-01	   8.6061208000000000e-01	   5.9058873999999995e-01	   4.6253007000000002e-01	
  -9.9862444599027078e-01	   5.2432965495237051e-02	   9.9450156825875058e-01	  -1.0472168223861616e-01	  -9.8764270928742970e-01	   1.5672229832217746e-01	  -7.2414416227509423e-02	  -9.9737462987707337e-01	  -9.8951230464485807e-01	   1.4444860316535307e-01	   2.1572432800909999e-01	   9.7645430733087668e-01	   9.5826920208715671e-01	  -2.8586734044175816e-01	   1.2461011584107488e-01	   9.9220578461832898e-01	   2.0019496732736064e-02	  -9.9979958979315853e-01	   4.6483016999999999e-01	   9.0848616000000004e-01	   7.2225013000000005e-01	   7.7364414999999997e-01	   1.9337654000000001e-01	   8.6285699999999999e-01	
   6.6161672387688575e-01	  -7.4984219052172352e-01	  -1.2452662137283346e-01	  -9.9221626703530064e-01	  -8.2639451441318867e-01	  -5.6309156142477412e-01	   0.0000000000000000e+00	   0.0000000000000000e+00	   0.0000000000000000e+00	   0.0000000000000000e+00	   0.0000000000000000e+00	   0.0000000000000000e+00	   0.0000000000000000e+00	   0.0000000000000000e+00	   0.0000000000000000e+00	   0.0000000000000000e+00	   0.0000000000000000e+00	   0.0000000000000000e+00	   2.5775717999999997e-01	   4.8198737999999998e-02	   8.6986105000000002e-01	   3.1802977999999998e-01	   7.6977649000000004e-01	   5.1731691000000002e-01	
   6.5486073394526767e-01	   7.5574957435427337e-01	  -1.4231483827333072e-01	   9.8982144188092613e-01	  -8.4125353283121851e-01	   5.4064081745553949e-01	   8.1638131239578438e-01	   5.7751324900034695e-01	   3.3295689445812665e-01	   9.4294204828971329e-01	  -2.7274173945788421e-01	   9.6208728479150352e-01	  -7.7827941286559987e-01	   6.2791811210505566e-01	   9.8160673298738566e-02	   9.9517057945738041e-01	   9.7107145753066992e-01	   2.3878907925041384e-01	   6.5742573000000004e-01	   1.6601648999999999e-01	   3.2525816000000002e-01	   1.5043329000000000e-01	   6.0782685999999997e-01	   7.0581147000000000e-01	
  -9.5919879320908608e-01	   2.8273251512026865e-01	   8.4012464978753409e-01	  -5.4239337460866266e-01	  -6.5249430723373092e-01	   7.5779362561819796e-01	  -9.0542547260386208e-01	  -4.2450525739980294e-01	   6.3959057287985410e-01	   7.6871574660808140e-01	  -2.5277772084157241e-01	  -9.6752437894150245e-01	  -1.8184779816644006e-01	   9.8332668950965507e-01	   9.8850445976881429e-01	   1.5119170948555563e-01	   7.4846158155596765e-01	  -6.6317815173205119e-01	   2.8549148000000002e-01	   5.6008343999999999e-01	   4.9788697999999998e-01	   6.8703427999999997e-02	   8.1459714000000005e-01	   7.5928547999999996e-01	
   5.8297947911448977e-01	  -8.1248687800566854e-01	  -3.2026985386279622e-01	  -9.4732635385420538e-01	  -9.5640098427650333e-01	  -2.9205677063703850e-01	  -8.9597409142806139e-01	   4.4410632453238030e-01	   6.0553914502068029e-01	  -7.9581552124071042e-01	  -1.8912067913999678e-01	   9.8195385264360890e-01	  -2.6664468769524713e-01	  -9.6379490065257356e-01	  -1.6150394799892362e-01	   9.8687206606568867e-01	  -8.8316507024269542e-01	   4.6906231857101338e-01	   6.6598166999999997e-01	   9.8710611000000004e-01	   3.2731202999999998e-01	   5.3379304000000005e-01	   5.5814511000000000e-01	   8.6636835000000001e-01	
   9.6414018811587399e-01	   2.6539347704848953e-01	   8.5913260468022568e-01	   5.1175303377251324e-01	   6.9250835406987321e-01	   7.2140985545211067e-01	   8.9556507459126355e-01	   4.4493055320167058e-01	   6.0407360565531076e-01	   7.9692852813197246e-01	   1.8640937282336031e-01	   9.8247216027916107e-01	  -2.7019015790118411e-01	   9.6280697887652078e-01	   7.4536861292712819e-01	   6.6665255633132392e-01	   9.8153194604572680e-01	  -1.9129829819339320e-01	   4.4852882999999999e-01	   4.3109257000000001e-01	   1.4753753000000000e-01	   9.6966814999999995e-01	   6.0411252000000004e-01	   4.2821374000000001e-01	
  -2.2094956267557281e-01	   9.7528523558673497e-01	  -9.0236258150694626e-01	  -4.3097769257366420e-01	   6.1970279819309437e-01	  -7.8483657019257769e-01	  -2.7887964690779934e-02	  -9.9961105507362502e-01	  -9.9844452285081164e-01	   5.5754235616813058e-02	   8.3577135888712920e-02	   9.9650131076513870e-01	   9.9378293042156984e-01	  -1.1133502235468129e-01	   9.8106773694492477e-01	   1.9366490525070332e-01	  -9.6874406974024552e-01	  -2.4806234567766702e-01	   9.5225108999999997e-01	   6.7249444999999997e-01	   4.4639752999999999e-01	   5.1951592999999996e-01	   2.4881742000000001e-01	   7.2345596999999995e-01	
  -7.8691143896110971e-01	  -6.1706595047219681e-01	   2.3845922553568863e-01	   9.7115251003996261e-01	   4.1161885436142864e-01	  -9.1135608778028421e-01	   0.0000000000000000e+00	   0.0000000000000000e+00	   0.0000000000000000e+00	   0.0000000000000000e+00	   0.0000000000000000e+00	   0.0000000000000000e+00	   0.0000000000000000e+00	   0.0000000000000000e+00	   0.0000000000000000e+00	   0.0000000000000000e+00	   0.0000000000000000e+00	   0.0000000000000000e+00	   5.4047257999999998e-01	   5.3010053000000001e-01	   3.4444893999999998e-01	   2.4427183000000000e-01	   7.3103178000000002e-01	   6.4497380999999998e-01	
   8.7037970164423673e-01	  -4.9238112775134807e-01	   5.1512165006862132e-01	  -8.5711707813494242e-01	   2.6323154550191134e-02	  -9.9965348573119417e-01	   9.5078595526795401e-02	   9.9546976883914062e-01	  -9.8192012134530404e-01	   1.8929573502121835e-01	  -2.8179776764081971e-01	  -9.5947382358908084e-01	   9.2833424940555342e-01	  -3.7174658220436652e-01	   5.7290500703075486e-01	   8.1962177430757088e-01	  -4.0739604781602479e-01	  -9.1325158648856630e-01	   4.5088529999999999e-01	   4.7514324000000002e-01	   2.2741743000000000e-01	   7.5064916999999998e-01	   2.0294609999999999e-01	   6.9459064999999998e-01	
   4.5020374481758585e-01	   8.9292585814961256e-01	  -5.9463317630444412e-01	   8.0399713036682408e-01	  -9.8561591034765883e-01	  -1.6900082032213865e-01	   0.0000000000000000e+00	   0.0000000000000000e+00	   0.0000000000000000e+00	   0.0000000000000000e+00	   0.0000000000000000e+00	   0.0000000000000000e+00	   0.0000000000000000e+00	   0.0000000000000000e+00	   0.0000000000000000e+00	   0.0000000000000000e+00	   0.0000000000000000e+00	   0.0000000000000000e+00	   2.9629664000000000e-01	   4.2250535000000000e-01	   3.9850762000000001e-01	   2.4092366000000001e-01	   2.9718696999999999e-01	   2.8416712999999999e-01	
  -8.8052439425867879e-01	   4.7400083450916697e-01	   5.5064641776922663e-01	  -8.3473859536858508e-01	  -8.9190812655240023e-02	   9.9601455759336066e-01	   0.0000000000000000e+00	   0.0000000000000000e+00	   0.0000000000000000e+00	   0.0000000000000000e+00	   0.0000000000000000e+00	   0.0000000000000000e+00	   0.0000000000000000e+00	   0.0000000000000000e+00	   0.0000000000000000e+00	   0.0000000000000000e+00	   0.0000000000000000e+00	   0.0000000000000000e+00	   2.7805085000000002e-01	   4.2172090000000001e-01	   6.8629983999999999e-01	   4.4883603000000000e-01	   2.3529486999999999e-01	   8.8695158999999996e-02	
  -3.6202910792740606e-01	  -9.3216679034027305e-01	  -7.3786985002657313e-01	   6.7494302309288479e-01	   8.9628983507070437e-01	   4.4346874923598562e-01	  -8.5341056879968247e-01	   5.2123929347373887e-01	   4.5661919787799499e-01	  -8.8966224384833625e-01	   7.4043270027854005e-02	   9.9725502965068180e-01	  -5.8299781625851299e-01	  -8.1247372033672893e-01	   7.9484142611501574e-01	   6.0681719432745795e-01	  -1.7692249227827761e-01	   9.8422478719347584e-01	   5.7515903999999995e-01	   3.1302165999999998e-01	   6.4907917999999998e-01	   6.9179559000000002e-01	   7.7876458999999998e-01	   5.8760261000000003e-01	
   9.9061199441305969e-01	  -1.3670360831002268e-01	   9.6262424695003979e-01	  -2.7084046814290658e-01	   9.1656225587003826e-01	  -3.9989202431959864e-01	   4.7825526129077617e-01	   8.7822087486445655e-01	  -5.4254381009538277e-01	   8.4002750795862935e-01	  -9.9720412460849728e-01	  -7.4725724244068800e-02	  -4.1129242825437035e-01	  -9.1150344950560858e-01	   5.9382136071295089e-01	   8.0459691247295961e-01	   3.5370943573863867e-01	  -9.3535535229636324e-01	   1.6723926000000000e-01	   1.4156931000000000e-01	   3.5846525000000001e-01	   4.2579317999999999e-01	   4.7461094999999998e-01	   5.8141507000000003e-01	
   7.7620363107642543e-01	   6.3048229404462464e-01	   2.0498415379245499e-01	   9.7876529193366435e-01	  -4.5798474210276141e-01	   8.8896005309635096e-01	   8.5382396390944204e-01	  -5.2056184901889213e-01	   4.5803072269206430e-01	  -8.8893636277867794e-01	  -7.1668749426952505e-02	  -9.9742848884297297e-01	  -5.8041571414037063e-01	  -8.1432032934154575e-01	   9.9094628984811828e-01	   1.3425889406757777e-01	   3.3453623232503304e-01	   9.4238288888422184e-01	   4.5536827000000002e-02	   6.2796236999999999e-01	   3.2992738999999999e-01	   1.5884036000000001e-02	   7.7046395000000001e-01	   5.4589935000000001e-01	
  -5.0913246006839019e-01	   8.6068817704480471e-01	  -4.8156827620941806e-01	  -8.7640857786119919e-01	   9.9949654238318031e-01	   3.1727933498219091e-02	  -9.0340124823436418e-01	  -4.2879620414433789e-01	   6.3226763062281466e-01	   7.7475005212430414e-01	  -2.3898148521130508e-01	  -9.7102412417313233e-01	  -2.0047528653322413e-01	   9.7969875956307184e-01	   8.2901072321113811e-01	  -5.5923270719884188e-01	   9.0891076673694213e-02	  -9.9586083976683037e-01	   2.7771989000000002e-01	   4.1034825999999996e-03	   3.0453596999999999e-01	   4.8077790999999998e-01	   5.7166245999999998e-01	   4.8382278000000001e-01	
  -7.5659752303723637e-01	  -6.5388086692754555e-01	   1.4487962373216301e-01	   9.8944928855764347e-01	   5.3736639412859333e-01	  -8.4334889485979248e-01	  -9.1736802423879993e-01	   3.9804008353958592e-01	   6.8312818379159890e-01	  -7.3029849000911362e-01	  -3.3599188029467864e-01	   9.4186488222889286e-01	  -6.6671769019182966e-02	  -9.9777496221134587e-01	   9.5434916974941675e-01	   2.9869325770529032e-01	   4.3380757995586239e-01	   9.0100554025646151e-01	   7.2708189999999995e-01	   9.4806961999999995e-01	   1.1097197000000000e-01	   6.8411553999999997e-01	   8.3209474999999999e-01	   6.9685158000000003e-01	
   8.8903831156476473e-02	  -9.9604021445205748e-01	  -9.8419221761140141e-01	  -1.7710358210141267e-01	  -2.6390074863656171e-01	   9.6454984053135495e-01	   3.6130223013010870e-01	   9.3244876454581138e-01	  -7.3892139700601989e-01	   6.7379163622493254e-01	  -8.9525012738836951e-01	  -4.4556392292364538e-01	   9.2009661906656215e-02	  -9.9575811426059835e-01	   9.6087761986771159e-01	  -2.7697328325555443e-01	  -8.9663531493982029e-01	  -4.4276981830604623e-01	   5.2392307000000005e-01	   2.5192592000000003e-01	   9.3308488999999994e-01	   6.1328218999999995e-01	   3.5223564000000002e-01	   1.0019089000000000e-01	
   9.9775894160928547e-01	  -6.6911093539998356e-02	   9.9104581112256318e-01	  -1.3352228374477731e-01	   9.7989069757464331e-01	  -1.9953501148088995e-01	   8.6380670959732408e-01	  -5.0382335044601123e-01	   4.9232406309071158e-01	  -8.7041198113413687e-01	  -1.3261051609379015e-02	  -9.9991206838912261e-01	  -5.1523403380370603e-01	  -8.5704952622958819e-01	   8.2815949699349711e-01	  -5.6049250444540100e-01	   8.9558223965215400e-01	   4.4489600135271151e-01	   4.5824603000000003e-01	   5.9484857000000002e-01	   6.3025781000000003e-01	   2.2623393999999999e-01	   9.2787606000000000e-01	   9.4681091999999994e-02	
  -5.5673197325053547e-02	   9.9844904481881580e-01	  -9.9380099019921131e-01	  -1.1117370138241833e-01	   1.6632935458344236e-01	  -9.8607025398997583e-01	  -9.1084711139336327e-01	  -4.1274391535959210e-01	   6.5928492066726774e-01	   7.5189320610094257e-01	  -2.9016841975660412e-01	  -9.5697559434708424e-01	  -1.3068678676150899e-01	   9.9142370546903502e-01	   4.6281353901112082e-01	  -8.8645565490215117e-01	  -3.6139399708000514e-01	  -9.3241320179121079e-01	   3.5531198000000003e-01	   8.4443659000000004e-01	   2.2517002000000000e-01	   1.8543270000000001e-01	   1.6217007999999999e-01	   3.9992443000000000e-01	
  -9.3328538670120587e-01	  -3.5913561083521178e-01	   7.4204322606003870e-01	   6.7035203487302875e-01	  -4.5179081166370150e-01	  -8.9212390534961783e-01	  -9.8006145855697657e-01	   1.9869458334633008e-01	   9.2104092509765656e-01	  -3.8946580632354999e-01	  -8.2529196632677637e-01	   5.6470626906072430e-01	   6.9663277140949409e-01	  -7.1742789310029442e-01	   9.8603533790002784e-01	   1.6653621952109374e-01	   8.4331873678056357e-01	   5.3741372162872303e-01	   4.5301857000000001e-01	   2.4329603999999999e-01	   9.0791964999999997e-01	   7.4211888999999998e-01	   3.0310080000000000e-01	   3.8760654999999999e-01	
  -1.1465415405003296e-02	  -9.9993426996457657e-01	  -9.9973708849918141e-01	   2.2929323565685163e-02	   3.4390217435867503e-02	   9.9940848152530393e-01	   3.0364445644683580e-01	   9.5278541344266265e-01	  -8.1560008813821128e-01	   5.7861601795054207e-01	  -7.9894934732827294e-01	  -6.0139832091861267e-01	   3.3040700754211605e-01	  -9.4383855047728582e-01	   9.4924137699509681e-01	  -3.1454857844290512e-01	  -9.5620419665227563e-01	  -2.9270041732900925e-01	   6.0566953000000000e-02	   5.2553223999999998e-01	   5.2270731000000004e-01	   9.3846021999999996e-01	   8.1980717000000003e-01	   9.5769493000000006e-01	
   9.0643899030762243e-01	  -4.2233678131332347e-01	   6.4326328629980400e-01	  -7.6564505124684012e-01	   2.5971885716349230e-01	  -9.6568427305910365e-01	   8.2789737998420065e-01	  -5.6087960224570133e-01	   3.7082814356940774e-01	  -9.2870150637159343e-01	  -2.1388208301316358e-01	  -9.7685948557914415e-01	  -7.2497297587373344e-01	  -6.8877731107578088e-01	   5.1355837927445824e-01	  -8.5805465506399514e-01	   9.8731855110795141e-01	   1.5875162562347359e-01	   3.7791373000000000e-01	   9.8740463000000001e-01	   1.6123281000000000e-01	   8.7585117000000001e-01	   1.5159426000000001e-01	   1.9861865000000001e-01	
   4.3700262365386572e-02	   9.9904468722334760e-01	  -9.9618057413839278e-01	   8.7317029892811704e-02	  -1.3076696727168494e-01	  -9.9141313299278322e-01	  -7.8308076724565945e-01	  -6.2192002055726536e-01	   2.2643097606010137e-01	   9.7402721372683931e-01	   4.2845328232300439e-01	  -9.0356393512946487e-01	  -8.9745802616093961e-01	   4.4109986542653834e-01	   5.8710505743364716e-01	  -8.0951074825219826e-01	  -6.5554672739749453e-01	  -7.5515461211491974e-01	   9.5278744000000004e-01	   7.8910534000000004e-02	   2.2656873999999999e-01	   9.2374175999999997e-01	   6.1863931000000005e-01	   2.6699905999999999e-02	
  -8.9892706610738049e-01	  -4.3809831067875310e-01	   6.1613974036084551e-01	   7.8763685817010232e-01	  -2.0880231212209632e-01	  -9.7795786946701679e-01	  -9.8714746361122796e-01	   1.5981203047930842e-01	   9.4892022982816115e-01	  -3.1551608108441909e-01	  -8.8630093247727748e-01	   4.6310976786276969e-01	   8.0089920515426050e-01	  -5.9879918435421542e-01	   9.5738695385850980e-01	   2.8880827651146646e-01	   8.1736019270025684e-01	   5.7612699588632288e-01	   7.2159008000000002e-01	   7.9331682000000003e-01	   9.2771767000000005e-01	   3.6357177000000002e-01	   4.1049654000000002e-01	   1.7630483999999998e-02	
   5.2539614329897544e-01	  -8.5085773934692654e-01	  -4.4791778521312497e-01	  -8.9407474949792021e-01	  -9.9606469703096479e-01	  -8.8629111067483113e-02	  -1.5252424722960795e-01	   9.8829972883080441e-01	  -9.5347270801408290e-01	  -3.0147934435428819e-01	   4.4337966131725570e-01	  -8.9633390872497709e-01	   8.1822040985541700e-01	   5.7490465374358679e-01	   7.6076682181614341e-01	   6.4902530214450360e-01	  -9.2103812432417409e-01	  -3.8947242975775209e-01	   6.5047193000000003e-01	   1.1041093000000000e-01	   6.7543158999999997e-01	   8.0778282999999995e-01	   4.0997950000000000e-01	   4.1673199000000000e-01	
   8.7774700914951165e-01	   4.7912439713407123e-01	   5.4087962414182567e-01	   8.4110001318998773e-01	   7.1763935651287317e-02	   9.9742164481218165e-01	   0.0000000000000000e+00	   0.0000000000000000e+00	   0.0000000000000000e+00	   0.0000000000000000e+00	   0.0000000000000000e+00	   0.0000000000000000e+00	   0.0000000000000000e+00	   0.0000000000000000e+00	   0.0000000000000000e+00	   0.0000000000000000e+00	   0.0000000000000000e+00	   0.0000000000000000e+00	   5.5031434000000001e-01	   4.0779531000000002e-01	   7.5326172999999996e-01	   4.5661225999999999e-01	   1.9781436999999999e-02	   1.0532937000000001e-01	
  -9.8805785608331764e-01	   1.5408333145424263e-01	   9.5251665393592400e-01	  -3.0448649226970842e-01	  -8.9422526985985151e-01	   4.4761721006243249e-01	  -3.3218675867815090e-01	  -9.4321363293736582e-01	  -7.7930391471780791e-01	   6.2664615893301345e-01	   8.4993564158875679e-01	   5.2688652018922277e-01	   2.1462918298900080e-01	  -9.7669560959875013e-01	   4.7355323543484829e-01	   8.8076519754653515e-01	   1.8288623776275167e-01	  -9.8313408243076705e-01	   2.8147613999999999e-01	   9.5004920999999998e-01	   5.8757740999999997e-01	   6.5825655000000005e-01	   8.8170724000000000e-01	   6.9284692000000003e-01	
   6.4008509534561875e-01	  -7.6830402232214701e-01	  -1.8058214143278026e-01	  -9.8355990676498772e-01	  -8.7126096977905398e-01	  -4.9082005107744164e-01	   0.0000000000000000e+00	   0.0000000000000000e+00	   0.0000000000000000e+00	   0.0000000000000000e+00	   0.0000000000000000e+00	   0.0000000000000000e+00	   0.0000000000000000e+00	   0.0000000000000000e+00	   0.0000000000000000e+00	   0.0000000000000000e+00	   0.0000000000000000e+00	   0.0000000000000000e+00	   4.4798781999999998e-01	   7.3508001000000001e-01	   7.7676754000000003e-01	   1.3054763999999999e-01	   5.0153698999999996e-01	   7.0228195999999998e-01	
   5.1156041936952124e-01	   8.5924730859891529e-01	  -4.7661187466895910e-01	   8.7911382705798702e-01	  -9.9919196033381408e-01	   4.0192367487741756e-02	   7.3595928262385188e-02	   9.9728814258628273e-01	  -9.8916727868639576e-01	   1.4679269319741486e-01	  -2.1919329642579047e-01	  -9.7568145355028424e-01	   9.5690381044769923e-01	  -2.9040505772226771e-01	  -8.1926838848907979e-01	   5.7341024373698302e-01	   8.9456591634066973e-01	  -4.4693603717039637e-01	   5.3543015999999999e-01	   8.6006901000000002e-01	   4.3383716000000000e-01	   1.6025184000000001e-01	   7.8265741000000007e-03	   5.7761695000000002e-01	
  -8.5169900841669355e-01	   5.2403129588033293e-01	   4.5078240187595792e-01	  -8.9263387016118900e-01	   8.3837159037795511e-02	   9.9647946831054746e-01	   9.8767142178235490e-01	   1.5654124885927545e-01	   9.5098967481115682e-01	   3.0922263565685204e-01	   8.9085922665979422e-01	   4.5427947155370491e-01	   8.0876272319485942e-01	   5.8813506745511712e-01	  -9.2323128407198929e-01	   3.8424470863082261e-01	  -7.5916625707508567e-01	   6.5089676149033404e-01	   8.5916775999999995e-01	   4.7945725000000000e-01	   8.4298660999999997e-01	   4.1961865999999998e-01	   2.1684339999999999e-01	   4.3830756999999998e-01	
  -4.2659713127435966e-01	  -9.0444175466886023e-01	  -6.3602977517697346e-01	   7.7166451589296792e-01	   9.6925408626550513e-01	   2.4606201709654579e-01	  -2.2218291933925277e-01	  -9.7500500016865921e-01	  -9.0126950070777423e-01	   4.3325891461568267e-01	   6.2267629689662007e-01	   7.8247953921052293e-01	   6.2457342581208120e-01	  -7.8096609130573702e-01	  -7.8705263715516682e-01	   6.1688584547475023e-01	   9.7661782917174211e-01	  -2.1498282662546295e-01	   7.8318619000000000e-01	   2.3732174000000000e-01	   8.1035619000000003e-01	   7.6660767000000005e-02	   2.0851449999999999e-01	   2.2766833000000000e-01	
   9.5605344391960501e-01	   2.9319244937321054e-01	   8.2807637526107469e-01	   5.6061530190896469e-01	   6.2731709687402248e-01	   7.7876393083497930e-01	  -9.0439750229174154e-01	   4.2669093949656262e-01	   6.3586968430308144e-01	  -7.7179643986241575e-01	  -2.4576040624174908e-01	   9.6933060548189154e-01	  -1.9133948916859905e-01	  -9.8152391712311293e-01	  -9.8975490841466207e-01	   1.4277682329105087e-01	  -7.3954978506195479e-01	  -6.7310186109891013e-01	   3.9361183000000001e-02	   2.0901030000000001e-01	   9.4451856000000001e-01	   3.4979283999999999e-01	   5.4746534000000002e-01	   6.8143271000000005e-02	
  -9.8458074366719583e-01	   1.7493072685995312e-01	   9.3879848160049695e-01	  -3.4446685028403151e-01	  -8.6406507066850757e-01	   5.0338012838274326e-01	  -2.5263305195538677e-01	   9.6756216392524719e-01	  -8.7235308211941365e-01	  -4.8887636485798686e-01	   6.9340349499241816e-01	  -7.2054950775939020e-01	   5.2199979976648103e-01	   8.5294560731839975e-01	   7.9481285551515665e-02	  -9.9683635830916517e-01	   4.1799399078678062e-01	   9.0844979149435701e-01	   3.5430421000000001e-01	   9.3995284000000001e-01	   9.2699158999999998e-01	   8.6225847000000000e-01	   8.5371808000000005e-01	   4.8550826000000002e-01	
   2.5102984620698260e-01	  -9.6797934704894328e-01	  -8.7396803262659728e-01	  -4.8598341324246341e-01	  -6.8981396784713100e-01	   7.2398666407814261e-01	   0.0000000000000000e+00	   0.0000000000000000e+00	   0.0000000000000000e+00	   0.0000000000000000e+00	   0.0000000000000000e+00	   0.0000000000000000e+00	   0.0000000000000000e+00	   0.0000000000000000e+00	   0.0000000000000000e+00	   0.0000000000000000e+00	   0.0000000000000000e+00	   0.0000000000000000e+00	   7.3417745000000001e-01	   2.8394675000000003e-01	   8.7793616000000005e-02	   1.1448163000000000e-01	   7.6482381000000002e-02	   8.4364335000000001e-01	
   8.3952080389242534e-01	   5.4332754378166392e-01	   4.0959036033636809e-01	   9.1226955266495890e-01	  -1.5180154674007354e-01	   9.8841099265807508e-01	  -8.7755719239502461e-01	  -4.7947197423390853e-01	   5.4021325184847624e-01	   8.4152815908161660e-01	  -7.0578856778444873e-02	  -9.9750620297612569e-01	  -4.1633928505458945e-01	   9.0920932667908405e-01	  -4.7621718954839576e-01	  -8.7932769112466103e-01	  -9.9723784969370555e-01	  -7.4274296619182889e-02	   9.7321882000000004e-01	   3.5116351000000001e-01	   2.9387092999999997e-01	   3.8538603999999999e-01	   7.7853097999999998e-01	   7.4616408999999995e-01	
  -9.9553970750728871e-01	   9.4343472356608185e-02	   9.8219861844739587e-01	  -1.8784534575023940e-01	  -9.6009574313907842e-01	   2.7967152877298906e-01	  -9.9066281408784218e-01	   1.3633484068116056e-01	   9.6282562243288516e-01	  -2.7012371385483230e-01	  -9.1700826710263827e-01	   3.9886819635741388e-01	   8.5406635842654532e-01	  -5.2016406585232300e-01	   9.7338186590231213e-01	  -2.2918931723039185e-01	   9.9910647044840362e-01	   4.2264177599159375e-02	   3.2153817000000001e-01	   5.0524932000000000e-01	   3.5550822999999998e-01	   7.0502801000000004e-01	   1.7854597999999999e-01	   6.9090256000000005e-01	
   7.1043772595596977e-01	  -7.0376007100325777e-01	   9.4435249229791549e-03	  -9.9995540892433254e-01	  -6.9701965321339010e-01	  -7.1705202254389144e-01	   5.1395198179484036e-01	   8.5781895549652909e-01	  -4.7170672081831216e-01	   8.8175550439724215e-01	  -9.9882118977587442e-01	   4.8541022390414308e-02	  -5.5498553906966985e-01	  -8.3185999508543984e-01	   9.6882960622506809e-01	   2.4772806482467741e-01	  -2.3856785183128734e-01	  -9.7112583122508123e-01	   7.1935230999999999e-01	   6.2589740999999999e-01	   8.9610791999999995e-01	   7.1243872000000000e-02	   6.6551517999999998e-01	   6.7633051000000000e-01	
   6.0207798710402738e-01	   7.9843728460334484e-01	  -2.7500419488952532e-01	   9.6144302628557454e-01	  -9.3322593131252540e-01	   3.5929007935910173e-01	   6.6118969059270760e-01	  -7.5021876346431082e-01	  -1.2565638610783908e-01	  -9.9207382418362278e-01	  -8.2735510469598850e-01	  -5.6167920624987522e-01	  -9.6842094526063538e-01	   2.4932082299819552e-01	   9.9709039036491542e-01	   7.6228298170302772e-02	  -2.0091487435293154e-01	   9.7960870415883183e-01	   1.3184731999999999e-01	   6.7872215999999996e-01	   9.1050288999999995e-01	   3.7682758000000000e-01	   3.4174049000000001e-01	   7.9762630999999995e-01	
  -9.5016192002918132e-01	   3.1175683749752714e-01	   8.0561534854708083e-01	  -5.9243895059775176e-01	  -5.8076813273176409e-01	   8.1406902410253890e-01	  -9.9723626203631333e-01	  -7.4295610098049594e-02	   9.8896032464031713e-01	   1.4818055299977270e-01	  -9.7521793285674419e-01	  -2.2124643146188555e-01	   9.5608504742536315e-01	   2.9308937560007386e-01	   9.7069808590326467e-01	  -2.4030236374979369e-01	   9.2437375701503000e-01	  -3.8148808283079860e-01	   2.8960280000000001e-03	   1.0466211000000000e-01	   9.2677703000000000e-01	   4.6517374000000000e-01	   5.1175243000000004e-01	   1.8558978000000001e-01	
   8.0096136152448816e-01	  -5.9871604066104511e-01	   2.8307820531032363e-01	  -9.5909683018884295e-01	  -3.4749195203795652e-01	  -9.3768296522270811e-01	  -8.0294345404021306e-01	   5.9605520685081870e-01	   2.8943638077205541e-01	  -9.5719725317490012e-01	   3.3814135943618767e-01	   9.4109533047329852e-01	  -8.3245316297114746e-01	  -5.5409541728779177e-01	  -2.8625886871410233e-01	   9.5815231570065218e-01	  -9.9999449563634668e-01	   3.3179356546679971e-03	   7.0082990000000001e-01	   5.4971871999999999e-01	   1.0887246000000000e-01	   3.5439505999999998e-01	   4.1636793000000000e-01	   3.9992464999999999e-01	
  -2.2958647908357441e-01	   9.7328826594283335e-01	  -8.9458009724401488e-01	  -4.4690765222234541e-01	   6.4035346865256426e-01	  -7.6808035724436374e-01	   5.7179020127481461e-01	   8.2039988159805766e-01	  -3.4611193145221386e-01	   9.3819322684957496e-01	  -9.6759702317216711e-01	   2.5249950643191499e-01	  -7.6041306181283597e-01	  -6.4943973964058288e-01	  -9.2976087722545220e-01	   3.6816397322518885e-01	   6.6721027905510621e-01	   7.4486941373854743e-01	   6.1895913999999996e-01	   8.8330118000000002e-01	   4.1888590999999997e-01	   2.3546617999999998e-02	   9.8396390000000000e-01	   9.1588742000000001e-01	
  -9.3247222940437324e-01	  -3.6124166618710796e-01	   7.3900891722072415e-01	   6.7369564364648593e-01	  -4.4573835577666865e-01	  -8.9516329135499739e-01	   6.4599592699013686e-01	  -7.6334085591703638e-01	  -1.6537852462430752e-01	  -9.8623016765514093e-01	  -8.5966363362801923e-01	  -5.1086048684300367e-01	  -9.4529988718617464e-01	   3.2620258013358133e-01	  -8.7812378488680054e-01	   4.7843350469639978e-01	  -3.2662273956647431e-01	  -9.4515479472840380e-01	   7.5685062000000003e-01	   1.1499806999999999e-01	   5.7055418000000002e-01	   1.5310204999999999e-01	   5.8633944000000005e-01	   5.7236206000000001e-01	
   7.3680925233881167e-01	  -6.7610067716866051e-01	   8.5775748664157381e-02	  -9.9631446890081010e-01	  -6.1040852185473105e-01	  -7.9208676068163286e-01	  -9.8803245431106046e-01	  -1.5424613197115231e-01	   9.5241626154387571e-01	   3.0480036867889071e-01	  -8.9400389852686057e-01	  -4.4805918071028827e-01	   8.1419347050642454e-01	   5.8059365530868823e-01	  -8.3227736822375653e-01	   5.5435943425050282e-01	  -6.2370553967107101e-01	   7.8165938859814010e-01	   1.7023534000000001e-01	   5.0183741999999998e-01	   3.1430173000000000e-01	   8.7830733999999999e-01	   1.4148056000000001e-01	   1.5134865000000000e-01	
   5.1539544562566098e-01	   8.5695246929355795e-01	  -4.6873506925665270e-01	   8.8333879958312767e-01	  -9.9856328542547612e-01	   5.3585119205607115e-02	  -2.6042589983296360e-01	   9.6549383773082220e-01	  -8.6435670139238241e-01	  -5.0287920294846145e-01	   7.1062764330649042e-01	  -7.0356829986054903e-01	   4.9422501448384032e-01	   8.6933401811872513e-01	  -9.6160465102801584e-01	   2.7443850881625176e-01	   6.9316000563426772e-01	  -7.2078374467596162e-01	   1.4183760000000001e-01	   8.1044006999999996e-01	   5.7750054000000002e-02	   9.1285280000000002e-01	   7.7878480000000005e-01	   5.5684644000000005e-01	
  -8.4718662199601302e-01	   5.3129542395072860e-01	   4.3545034497803109e-01	  -9.0021275099751485e-01	   1.0937120837813963e-01	   9.9400097523991671e-01	   8.2875762010231446e-01	   5.5960772611030651e-01	   3.7367838575530432e-01	   9.2755833456409087e-01	  -2.0938000077783325e-01	   9.7783434960849813e-01	  -7.2072892803861999e-01	   6.9321700230757588e-01	  -9.9942939271781339e-01	  -3.3777048001604644e-02	  -4.0479534453805632e-01	   9.1440731025091671e-01	   1.2086920000000000e-01	   1.0115027000000000e-01	   4.5302782000000003e-01	   6.1118960999999999e-02	   5.7212554999999998e-01	   9.7164260000000002e-01	
  -1.3725589475540698e-01	  -9.9053562245630145e-01	  -9.6232163870978527e-01	   2.7191370629468731e-01	   4.0142452988260913e-01	   9.1589210434882895e-01	   4.6380281490051695e-01	  -8.8593845660427051e-01	  -5.6977389778071363e-01	  -8.2180150000336027e-01	  -9.9232829019558566e-01	   1.2363075862221919e-01	  -3.5071541081554575e-01	   9.3648208771790342e-01	  -9.4121327091973295e-01	  -3.3781293439502486e-01	   8.1389393022123924e-01	  -5.8101348551391174e-01	   6.5176746999999993e-02	   6.8525322000000000e-02	   6.8474696000000002e-01	   6.9848558999999999e-01	   3.8469799999999998e-01	   1.1297314999999999e-01	
   8.2055953933962100e-01	   5.7156105745471231e-01	   3.4663591520250203e-01	   9.3799975601901076e-01	  -2.5168872554535487e-01	   9.6780823794456050e-01	   0.0000000000000000e+00	   0.0000000000000000e+00	   0.0000000000000000e+00	   0.0000000000000000e+00	   0.0000000000000000e+00	   0.0000000000000000e+00	   0.0000000000000000e+00	   0.0000000000000000e+00	   0.0000000000000000e+00	   0.0000000000000000e+00	   0.0000000000000000e+00	   0.0000000000000000e+00	   1.9426676000000001e-01	   5.9785590000000000e-01	   9.8304524999999998e-01	   3.7515108000000003e-01	   1.4513992000000001e-01	   6.3992000999999998e-01	
  -6.5880489955135013e-01	   7.5231383366726379e-01	  -1.3195220865427101e-01	  -9.9125607924050574e-01	   8.3266642268746172e-01	   5.5377488976014910e-01	   1.4756629022703946e-01	   9.8905216747582592e-01	  -9.5644837997725829e-01	   2.9190151839084033e-01	  -4.2984536868085127e-01	  -9.0290251911467334e-01	   8.2958700712224387e-01	  -5.5837746875564220e-01	  -8.4129502282084523e-01	  -5.4057625232419659e-01	   6.4686023280046512e-01	   7.6260857536571669e-01	   8.1733758999999995e-01	   4.6379801999999998e-01	   5.9958396000000003e-01	   8.1889157999999995e-01	   7.0302608000000003e-02	   3.1884844000000001e-01	
  -5.1443953378157525e-01	  -8.5752665619361101e-01	  -4.7070393216519096e-01	   8.8229122643502877e-01	   9.9873695660600537e-01	  -5.0244318180009975e-02	   9.4846927312428431e-01	   3.1686911799525636e-01	   7.9918792412181661e-01	   6.0108124404098784e-01	   5.6754110583876582e-01	   8.2334506325313617e-01	   2.7740267612427694e-01	   9.6075374330735219e-01	  -2.1620637546671545e-01	  -9.7634768561591090e-01	  -7.5965380587769737e-01	  -6.5032768295339360e-01	   8.8170216000000001e-01	   5.3828452999999998e-01	   8.4357081000000000e-01	   6.5821392999999995e-01	   9.0017956999999996e-02	   4.4515241999999999e-01	
   9.8571877563646859e-01	  -1.6839980806919394e-01	   9.4328300928451725e-01	  -3.3198970525476434e-01	   8.7390477034476699e-01	  -4.8609716350608356e-01	  -2.9785822302923276e-01	  -9.5461011883065006e-01	  -8.2256095794773565e-01	   5.6867694736124430e-01	   7.8787131356430473e-01	   6.1583990879323258e-01	   3.5321305907979317e-01	  -9.3554290916851834e-01	  -4.5436060370962061e-01	  -8.9081784995397861e-01	  -1.3284828212563760e-01	   9.9113638513388613e-01	   4.0847431000000001e-01	   5.1214877999999997e-01	   4.7099468999999998e-02	   2.4412524999999999e-01	   4.7411931999999997e-02	   5.0952478000000001e-01	
  -5.7708677428232869e-01	   8.1668283620290227e-01	  -3.3394170989683314e-01	  -9.4259372711215272e-01	   9.6251346260770598e-01	   2.7123391067291736e-01	  -8.2182771256827558e-01	   5.6973608877689663e-01	   3.5080157829040831e-01	  -9.3644981321422593e-01	   2.4523079526478139e-01	   9.6946472708077569e-01	  -7.5387650533791706e-01	  -6.5701614493061700e-01	   8.9722187923864920e-03	  -9.9995974883489258e-01	   9.3955958853131549e-01	  -3.4238542550591311e-01	   3.0265553999999999e-03	   4.1922003000000002e-01	   5.4199657000000001e-01	   2.3251949000000000e-01	   2.1360826999999999e-01	   6.0398401000000002e-01	
  -3.0659669987356991e-01	  -9.5183951568877201e-01	  -8.1199692725327222e-01	   5.8366170863886913e-01	   8.0450785628023491e-01	   5.9394200826627919e-01	   7.3082470040371872e-01	   6.8256520368373208e-01	   6.8209485440370560e-02	   9.9767102097633364e-01	  -6.3112634688041747e-01	   7.7568004632927035e-01	  -9.9069493219191973e-01	   1.3610125395912973e-01	   4.2562409157046138e-01	  -9.0490006778363075e-01	  -8.7376097423020227e-01	  -4.8635558998770423e-01	   9.7002737999999999e-01	   8.0204074999999997e-01	   7.7983367999999997e-01	   5.1029068000000000e-01	   2.9525336000000002e-01	   9.1732548999999997e-02	
   9.8199275719538792e-01	  -1.8891856662541118e-01	   9.2861955036840016e-01	  -3.7103332825177626e-01	   8.4180258810822450e-01	  -5.3978551541727671e-01	   3.1528141658012171e-01	  -9.4899822358065122e-01	  -8.0119525671846348e-01	  -5.9840300852505357e-01	  -8.2048536757106461e-01	   5.7166752715348024e-01	   2.8382767877632936e-01	   9.5887530407266242e-01	   1.3032068343106326e-01	  -9.9147189545143466e-01	   4.8888745168889952e-01	   8.7234686884354318e-01	   8.3198532999999997e-01	   7.2433864999999997e-01	   4.6898153999999997e-01	   3.4113048000000001e-01	   8.8928784000000005e-01	   8.0636556000000004e-01	
  -5.0961664259187245e-01	   8.6040157926016603e-01	  -4.8058175518677543e-01	  -8.7694992820662132e-01	   9.9944156373025983e-01	   3.3414977007517888e-02	   0.0000000000000000e+00	   0.0000000000000000e+00	   0.0000000000000000e+00	   0.0000000000000000e+00	   0.0000000000000000e+00	   0.0000000000000000e+00	   0.0000000000000000e+00	   0.0000000000000000e+00	   0.0000000000000000e+00	   0.0000000000000000e+00	   0.0000000000000000e+00	   0.0000000000000000e+00	   4.9586532000000000e-01	   9.0141738999999999e-01	   4.4395461000000003e-01	   8.5462232999999999e-01	   6.2895334000000003e-01	   5.4830299000000005e-01	
  -6.1505340790544194e-01	  -7.8848545035650597e-01	  -2.4341861084780408e-01	   9.6992132665125230e-01	   9.1448430020454330e-01	  -4.0462138435753342e-01	  -7.8612214174406203e-01	   6.1807117572309489e-01	   2.3597604348054238e-01	  -9.7175887281941975e-01	   4.1511015634163467e-01	   9.0977115699610067e-01	  -8.8863061380653829e-01	  -4.5862362805007650e-01	   9.7084723165200992e-01	   2.3969908801167461e-01	  -3.8330270327893391e-03	   9.9999265392490055e-01	   6.5044033999999995e-01	   5.6954309999999997e-01	   7.9518736000000001e-01	   2.4965892000000001e-01	   6.2690756000000003e-01	   9.0735960999999998e-01	
   9.9930622125079860e-01	  -3.7243471501054934e-02	   9.9722584766110023e-01	  -7.4435265543962043e-02	   9.9376176586887843e-01	  -1.1152377637601978e-01	   5.7762592060645401e-01	   8.1630159612948605e-01	  -3.3269659168709304e-01	   9.4303392191362434e-01	  -9.6197427071822728e-01	   2.7314007848745814e-01	  -7.7862595575958338e-01	  -6.2748834333195014e-01	   6.0762708124946352e-01	   7.9422246891677517e-01	   5.4682327078603521e-01	  -8.3724805794152934e-01	   3.1300602999999999e-01	   6.1145923000000002e-01	   1.2603991000000000e-01	   3.9130886999999998e-01	   4.4806550000000001e-02	   9.6047642000000000e-01	
  -2.0752220142942049e-01	   9.7823030821677526e-01	  -9.1386907182777410e-01	  -4.0600901413225143e-01	   5.8681844463734256e-01	  -8.0971853939094796e-01	   2.8952445458042925e-01	  -9.5717061707926709e-01	  -8.3235118039980993e-01	  -5.5424860170057544e-01	  -7.7149649762969152e-01	   6.3623356886061844e-01	   3.8561697502591386e-01	   9.2265895572083612e-01	   8.7625055557930920e-01	   4.8185575004035380e-01	  -9.9641605994367533e-01	   8.4587442840660651e-02	   3.2644214999999999e-01	   4.5652431999999998e-01	   1.4974957000000000e-01	   1.5671549000000001e-01	   4.4814314999999999e-01	   6.0570250999999997e-01	
  -3.6357760597428435e-01	  -9.3156391323086796e-01	  -7.3562264886801609e-01	   6.7739155476902990e-01	   8.9848944912607409e-01	   4.3899511365062349e-01	   0.0000000000000000e+00	   0.0000000000000000e+00	   0.0000000000000000e+00	   0.0000000000000000e+00	   0.0000000000000000e+00	   0.0000000000000000e+00	   0.0000000000000000e+00	   0.0000000000000000e+00	   0.0000000000000000e+00	   0.0000000000000000e+00	   0.0000000000000000e+00	   0.0000000000000000e+00	   5.5138945000000002e-02	   8.7777559999999999e-01	   8.6444631999999993e-02	   9.1470059999999997e-01	   1.6022053999999999e-01	   8.6690022000000000e-01	
   9.5699166964605120e-01	   2.9011539812299364e-01	   8.3166611154387382e-01	   5.5527603847950513e-01	   6.3480341170277055e-01	   7.7267368823489957e-01	  -3.7354524067144235e-02	   9.9930207621705514e-01	  -9.9720927906343426e-01	  -7.4656906912794391e-02	   1.1185508009665301e-01	  -9.9372452976495018e-01	   9.8885269250042873e-01	   1.4889712063922722e-01	  -3.2566088804269516e-01	   9.4548663977829062e-01	   2.5416495133099526e-01	  -9.6716088502115971e-01	   9.3194966000000001e-01	   1.8940956000000000e-01	   1.0041213000000000e-01	   7.6597291999999995e-01	   6.9191013999999995e-01	   1.6323197000000000e-01	
  -1.5851063795870543e-01	   9.8735726950983871e-01	  -9.4974875530784841e-01	  -3.1301326136633995e-01	   4.5960120016737255e-01	  -8.8812540601241152e-01	   9.9968437308496771e-01	   2.5122782682558367e-02	   9.9873769158056991e-01	   5.0229706512326493e-02	   9.9716055308313201e-01	   7.5304922647475694e-02	   9.9495395316737112e-01	   1.0033260226178095e-01	  -1.8326576984698661e-01	   9.8306340467051834e-01	  -1.3365544562310683e-01	   9.9102786129113885e-01	   6.3366076000000005e-01	   3.5742994000000000e-01	   5.3749687999999995e-01	   1.6990314000000001e-01	   1.5714527000000000e-01	   7.9270034000000003e-02	
  -9.4677867083173550e-01	  -3.2188530326514181e-01	   7.9277970308381540e-01	   6.0950827917128214e-01	  -5.5439515626441005e-01	  -8.3225357356430751e-01	  -9.6911540914997862e-01	  -2.4660763116349313e-01	   8.7836935250386106e-01	   4.7798251074903136e-01	  -7.3336713972318335e-01	  -6.7983280177867034e-01	   5.4306543883610425e-01	   8.3969037694959292e-01	   8.3815842681301100e-01	   5.4542685262309776e-01	   9.9691717110212952e-01	   7.8461162123227970e-02	   7.7650028000000004e-01	   4.4100043999999999e-01	   5.6154806999999995e-01	   9.3932313000000001e-01	   5.4448284000000002e-01	   4.1956911000000002e-01	
   8.0766699851592727e-01	  -5.8963888907387474e-01	   3.0465196098345371e-01	  -9.5246374349312435e-01	  -3.1555232867693322e-01	  -9.4890817673079664e-01	   0.0000000000000000e+00	   0.0000000000000000e+00	   0.0000000000000000e+00	   0.0000000000000000e+00	   0.0000000000000000e+00	   0.0000000000000000e+00	   0.0000000000000000e+00	   0.0000000000000000e+00	   0.0000000000000000e+00	   0.0000000000000000e+00	   0.0000000000000000e+00	   0.0000000000000000e+00	   1.2838809000000001e-01	   3.5759326000000001e-02	   7.3669890000000005e-01	   7.5920354000000001e-01	   9.3400446999999998e-01	   3.8636867000000003e-01	
   3.3343850097611899e-01	   9.4277185260634433e-01	  -7.7763753213359743e-01	   6.2871286659107617e-01	  -8.5202708701090957e-01	  -5.2349770104529014e-01	   5.8432866875652401e-01	   8.1151710201894600e-01	  -3.1712001373845683e-01	   9.4838541579176605e-01	  -9.5493329968421026e-01	   2.9682047293646435e-01	  -7.9886979377304190e-01	  -6.0150399217047390e-01	  -5.7023780630458698e-01	   8.2147966758826862e-01	   9.5991315707968006e-01	   2.8029757556090551e-01	   8.3680429000000001e-01	   9.1981645000000001e-01	   2.1343392000000000e-01	   7.1300145999999995e-02	   6.2903880000000001e-01	   7.6412068000000000e-01	
  -9.9591228394766695e-01	  -9.0325647975210643e-02	   9.8368255463571663e-01	   1.7991284474808997e-01	  -9.6341079538579766e-01	  -2.6802917627397349e-01	   8.0176958771363405e-01	  -5.9763327234810926e-01	   2.8566894356498135e-01	  -9.5832836474898708e-01	  -3.4368824550426674e-01	  -9.3908380345004294e-01	  -8.3678650936493504e-01	  -5.4752930309239844e-01	  -8.5247379387605327e-01	   5.2276995969027173e-01	  -7.4451056872327603e-01	  -6.6761067476437508e-01	   6.9613860999999999e-01	   5.2914450999999996e-01	   9.7309447999999998e-01	   8.1696433000000002e-01	   6.6763687000000005e-01	   8.7969326000000003e-01	
   3.5379195843411415e-01	  -9.3532414175373124e-01	  -7.4966250029470805e-01	  -6.6182031976351929e-01	  -8.8424108672187307e-01	   4.6703072763247699e-01	  -8.7395650914962031e-01	  -4.8600413590319347e-01	   5.2759995976998053e-01	   8.4949295609246511e-01	  -4.8242328986483854e-02	  -9.9883566100433152e-01	  -4.4327656490142986e-01	   8.9638489891853290e-01	  -7.6377018626070392e-01	   6.4548826680218574e-01	   1.4537261634413223e-01	   9.8937697689872572e-01	   7.4366648000000002e-01	   5.5465629999999999e-01	   1.9349874000000000e-01	   7.6230061000000005e-01	   8.6353113000000004e-01	   1.7753421999999999e-01	
   5.0469157896352690e-01	   8.6329972206835681e-01	  -4.9057282024660415e-01	   8.7140019969890581e-01	  -9.9986752145722513e-01	   1.6276963321989912e-02	  -5.6112715470332453e-01	   8.2772961542677170e-01	  -3.7027263250910258e-01	  -9.2892312793620280e-01	   9.7666721219200947e-01	   2.1475836800713596e-01	  -7.2579635522955810e-01	   6.8790962395905542e-01	  -9.9777489665221197e-01	  -6.6672750135777392e-02	   4.3138259723914774e-01	  -9.0216908326499823e-01	   9.0814494000000001e-01	   4.7838828000000000e-01	   4.1911997000000001e-01	   1.8678417999999999e-01	   6.3443331999999997e-01	   4.0591326999999999e-01	
  -8.5094504327532594e-01	   5.2525473184461058e-01	   4.4821493334969248e-01	  -8.9392582104016372e-01	   8.8132491563523110e-02	   9.9610876109529600e-01	   5.8843734565885752e-01	   8.0854281904792047e-01	  -3.0748298046791656e-01	   9.5155358058417649e-01	  -9.5030628338248779e-01	   3.1131650737434863e-01	  -8.1090843344513364e-01	  -5.8517306206588082e-01	  -9.2541878417039536e-01	  -3.7894600394328909e-01	  -7.6036900962593426e-02	   9.9710500434608429e-01	   1.8450691999999999e-01	   5.8741968000000000e-01	   6.8900815000000004e-01	   7.0965964000000004e-01	   7.0029231999999997e-01	   9.8825742999999999e-01	
  -4.8675123991778213e-01	  -8.7354062895694884e-01	  -5.2614646087700334e-01	   8.5039396852670812e-01	   9.9895612433825065e-01	   4.5679991758991595e-02	   6.9776649863010876e-01	  -7.1632528462248102e-01	  -2.6243826778956786e-02	  -9.9965557146248929e-01	  -7.3439062487452544e-01	  -6.7872705124844102e-01	  -9.9862252311199218e-01	   5.2469575312161253e-02	  -9.6537794804818233e-01	  -2.6085516560398236e-01	   2.8610053128559254e-01	  -9.5819960655288394e-01	   5.3602978999999995e-01	   7.4793394000000002e-01	   5.1835478000000001e-01	   4.1316714999999998e-01	   1.1173928000000000e-02	   8.7182791000000003e-03	
   9.9068594603632976e-01	   1.3616664909625356e-01	   9.6291728734779547e-01	   2.6979677115703782e-01	   9.1721130150544461e-01	   3.9840108984626083e-01	  -9.9338691196740936e-01	  -1.1481482104612821e-01	   9.7363511373629108e-01	   2.2811108105420808e-01	  -9.4100584606765414e-01	  -3.3839030374184531e-01	   8.9593066940056099e-01	   4.4419391669344438e-01	  -9.6850050321410397e-01	  -2.4901159666575259e-01	  -9.9976840211097850e-01	  -2.1520737451601726e-02	   8.8883670000000004e-01	   7.9961996999999996e-01	   6.1830443000000002e-01	   8.2849834000000000e-01	   8.7569995000000000e-01	   1.3026741999999999e-01	
  -4.4721740439506580e-01	   8.9442528654222442e-01	  -5.9999318641228039e-01	  -8.0000511014545317e-01	   9.8387219535911552e-01	  -1.7887286881814829e-01	  -6.5244328273753216e-01	   7.5783755700722077e-01	  -1.4863552562134524e-01	  -9.8889204695116562e-01	   8.4639578327315057e-01	   5.3255438976449154e-01	  -9.5581496104653285e-01	   2.9396897836270908e-01	  -3.8604508265776755e-01	  -9.2247991531293372e-01	   9.6961306549951798e-01	  -2.4464362491719976e-01	   4.7622002000000002e-01	   4.7968434999999998e-01	   9.9388991999999998e-01	   5.4520647000000000e-01	   7.2729621000000000e-01	   5.9146546000000000e-01	
  -7.3305187182994769e-01	  -6.8017273777078868e-01	   7.4730093586780011e-02	   9.9720379718115348e-01	   6.2348980185831515e-01	  -7.8183148246836343e-01	  -3.2032131924061196e-03	   9.9999486969946205e-01	  -9.9997947885048799e-01	  -6.4063935179195109e-03	   9.6095081099844566e-03	  -9.9995382761099727e-01	   9.9991791624418713e-01	   1.2812524102720593e-02	   6.8251736970679000e-01	  -7.3086937276679265e-01	  -6.7782112685366225e-01	   7.3522684934027782e-01	   2.7321804000000002e-02	   6.0965994000000001e-01	   7.5720936000000005e-01	   6.9858421000000004e-01	   2.5439425000000002e-02	   7.6115032000000005e-01	
   8.3783083163359329e-01	  -5.4592993832923420e-01	   4.0392100487167693e-01	  -9.1479386848811728e-01	  -1.6099588878176746e-01	  -9.8695507688818784e-01	   8.9441322278231072e-01	  -4.4724153084453216e-01	   5.9995002617567883e-01	  -8.0003747792950453e-01	   1.7879325005793037e-01	  -9.8388666711858763e-01	  -2.8011993218360465e-01	  -9.5996501165066050e-01	   5.0520443291555794e-01	  -8.6299969928295428e-01	   9.9352951562001346e-01	  -1.1357421182584285e-01	   3.5806747999999999e-01	   8.6757947999999996e-01	   7.3205233999999997e-01	   4.9772812999999999e-01	   3.0142297000000001e-01	   8.2684687000000001e-01	
  -3.2969817608492297e-01	   9.4408639047826293e-01	  -7.8259822537255019e-01	  -6.2252712201456339e-01	   8.4574059111017752e-01	  -5.3359427709506746e-01	  -5.7634363231544516e-01	  -8.1720745070602419e-01	  -3.3565603497887797e-01	   9.4198462099031011e-01	   9.6325006913209843e-01	  -2.6860622538766227e-01	  -7.7467005236451647e-01	  -6.3236564578537735e-01	   9.6153387678155511e-01	  -2.7468637352703373e-01	  -5.8149498803643140e-01	  -8.1354998548860558e-01	   2.8106929000000003e-01	   8.4947523000000003e-01	   4.3426817000000000e-02	   9.4377274000000000e-01	   3.3963515000000000e-01	   1.8888384999999999e-01	
  -4.5296860317583076e-01	  -8.9152646878089759e-01	  -5.8963888907387352e-01	   8.0766699851592816e-01	   9.8714441109971307e-01	   1.5983088448294527e-01	  -9.7062144665300309e-01	   2.4061173557669913e-01	   8.8421198540553725e-01	  -4.6708582173429114e-01	  -7.4584878619149020e-01	   6.6611529642898970e-01	   5.6366167026960401e-01	  -8.2600576358090883e-01	   6.5417277186885259e-01	   7.5634514908566852e-01	   2.2514930993697729e-01	   9.7432427262944798e-01	   7.1930673000000001e-01	   9.8462707000000005e-01	   4.2269416999999998e-01	   9.3585585000000004e-01	   1.7765892000000000e-01	   5.4953971999999995e-01	
   6.8397538554022419e-01	   7.2950508701111993e-01	  -6.4355343950203453e-02	   9.9792704628397111e-01	  -7.7201032792005253e-01	   6.3560998543507241e-01	   2.8952445458042969e-01	   9.5717061707926698e-01	  -8.3235118039980938e-01	   5.5424860170057622e-01	  -7.7149649762969319e-01	  -6.3623356886061655e-01	   3.8561697502591213e-01	  -9.2265895572083678e-01	  -5.0023323385192564e-01	   8.6589070427510928e-01	   8.9628843474187059e-01	  -4.4347157941402249e-01	   8.5093138999999995e-01	   6.0786400999999997e-02	   5.4866034000000001e-02	   5.0547748000000003e-02	   5.9076693999999999e-02	   6.5202821000000000e-01	
  -9.2112365311488087e-01	   3.8927010631731884e-01	   6.9693756865540657e-01	  -7.1713180475885352e-01	  -3.6280770535086115e-01	   9.3186402921136657e-01	   0.0000000000000000e+00	   0.0000000000000000e+00	   0.0000000000000000e+00	   0.0000000000000000e+00	   0.0000000000000000e+00	   0.0000000000000000e+00	   0.0000000000000000e+00	   0.0000000000000000e+00	   0.0000000000000000e+00	   0.0000000000000000e+00	   0.0000000000000000e+00	   0.0000000000000000e+00	   9.1591657999999998e-01	   5.8931489000000004e-01	   3.8025431999999998e-01	   4.9310388999999999e-01	   8.6797665000000002e-01	   6.1651536000000000e-02	
   1.0962512789641796e-01	  -9.9397300332237093e-01	  -9.7596466266738802e-01	  -2.1792883522960316e-01	  -3.2360562983101160e-01	   9.4619205045364563e-01	  -2.0298742947974774e-01	  -9.7918134350752639e-01	  -9.1759220694640886e-01	   3.9752300782623728e-01	   5.7550679627714829e-01	   8.1779699647211535e-01	   6.8395091649756257e-01	  -7.2952802812650330e-01	  -9.9553234372149269e-01	   9.4421144900873874e-02	   9.5102729788532769e-01	   3.0910690493247178e-01	   4.3152274000000002e-01	   1.8600328999999999e-01	   1.7872371000000001e-01	   7.6912581000000002e-01	   2.8181739000000000e-01	   9.2094215999999995e-01	
   8.4125353283122717e-01	   5.4064081745552595e-01	   4.1541501300204137e-01	   9.0963199535444761e-01	  -1.4231483827303223e-01	   9.8982144188096910e-01	   0.0000000000000000e+00	   0.0000000000000000e+00	   0.0000000000000000e+00	   0.0000000000000000e+00	   0.0000000000000000e+00	   0.0000000000000000e+00	   0.0000000000000000e+00	   0.0000000000000000e+00	   0.0000000000000000e+00	   0.0000000000000000e+00	   0.0000000000000000e+00	   0.0000000000000000e+00	   9.7340895999999996e-02	   1.0425172000000001e-01	   5.1975826000000003e-01	   5.0688496000000005e-01	   9.8037342999999999e-01	   9.0469071999999995e-01	
  -6.0729772326174136e-01	   7.9447433899472508e-01	  -2.6237895064221084e-01	  -9.6496491452274691e-01	   9.2598200197538039e-01	   3.7756765223952460e-01	  -3.2476159040732727e-01	   9.4579591318428913e-01	  -7.8905981879220677e-01	  -6.1431636993296035e-01	   8.3727423376227617e-01	  -5.4678319055892100e-01	   2.4523079526478053e-01	   9.6946472708077591e-01	  -5.5418360849376869e-01	  -8.3239445461681527e-01	   9.4863755740823252e-01	   3.1636495487734140e-01	   9.6949507000000001e-01	   1.5785864999999999e-01	   6.0785133999999996e-01	   1.3009201999999999e-02	   1.5204972999999999e-01	   3.5381442000000002e-01	
  -5.2879164861706074e-01	  -8.4875166706926175e-01	  -4.4075878470570196e-01	   8.9762558659206715e-01	   9.9493077743102132e-01	  -1.0056216048048811e-01	   9.1680169978866577e-01	   3.9934276413203373e-01	   6.8105071347077373e-01	   7.3223624990910552e-01	   3.3197520371591216e-01	   9.4328811299505866e-01	  -7.2339851361900034e-02	   9.9738004085952026e-01	  -1.4585424549706152e-01	  -9.8930608967623512e-01	  -8.2373991907528277e-01	  -5.6696785245889081e-01	   9.0554630000000003e-01	   1.9606881000000001e-01	   5.0033925999999995e-01	   5.6229861000000003e-01	   7.6018459000000005e-01	   5.7854501999999997e-01	
   7.1180546459595084e-01	  -7.0237666573665636e-01	   1.3334038857314719e-02	  -9.9991109775207099e-01	  -6.9282298114840868e-01	  -7.2110770124346324e-01	   4.5584646353312258e-01	  -8.9005842599480267e-01	  -5.8440800336869114e-01	  -8.1145997165517658e-01	  -9.8864710672526446e-01	   1.5025610923940333e-01	  -3.1693457119723978e-01	   9.4844740369723279e-01	  -3.0068226580143048e-01	  -9.5372437057701209e-01	   9.4963027332066141e-01	   3.1337253228853024e-01	   5.6474228999999998e-01	   8.3179641000000004e-01	   8.2523579000000002e-01	   5.0489280999999997e-01	   8.3927484999999996e-02	   4.0613567000000000e-01	
   7.1510950135502227e-01	   6.9901244700775633e-01	   2.2763197856457286e-02	   9.9974088484134116e-01	  -6.8255314321826877e-01	   7.3083596427848407e-01	   0.0000000000000000e+00	   0.0000000000000000e+00	   0.0000000000000000e+00	   0.0000000000000000e+00	   0.0000000000000000e+00	   0.0000000000000000e+00	   0.0000000000000000e+00	   0.0000000000000000e+00	   0.0000000000000000e+00	   0.0000000000000000e+00	   0.0000000000000000e+00	   0.0000000000000000e+00	   1.5521019999999999e-01	   6.7690097000000005e-01	   3.9604307000000000e-01	   6.6065543000000004e-01	   6.6851232000000005e-01	   5.5394715000000005e-01	
  -9.0846527181946368e-01	   4.1796034488691391e-01	   6.5061830020402389e-01	  -7.5940491665489407e-01	  -2.7366299007166750e-01	   9.6182564317293728e-01	  -7.7218756979169401e-01	   6.3539464670328927e-01	   1.9254728588160447e-01	  -9.8128769619292977e-01	   4.7482232828188820e-01	   8.8008167607612808e-01	  -9.2585108539925531e-01	  -3.7788856514192215e-01	   4.3593582481101711e-01	  -8.9997775341745989e-01	   9.6707535616182794e-01	   2.5449018744241142e-01	   7.7568884999999999e-01	   5.9118263999999998e-01	   4.2215070999999998e-01	   5.1011287000000005e-01	   2.7775594999999997e-01	   2.5586123000000000e-01	
  -2.3732669987109267e-01	  -9.7142989326471541e-01	  -8.8735207505659264e-01	   4.6109250144928537e-01	   6.5851137906498713e-01	   7.5257076985618354e-01	   3.4327237162530516e-01	   9.3923590161297521e-01	  -7.6432815775747676e-01	   6.4482747092463555e-01	  -8.6801785045212410e-01	  -4.9653299114608074e-01	   1.6839506548187669e-01	  -9.8571958584647923e-01	   8.3093413253952431e-01	  -5.5637080025895336e-01	  -9.9386953076903817e-01	  -1.1055928639843798e-01	   2.2194174999999999e-01	   4.4229339000000001e-01	   2.9983010999999998e-01	   3.0589000999999999e-01	   5.5432308000000000e-02	   8.9776138999999999e-01	
   9.3756544296344546e-01	  -3.4780891328538172e-01	   7.5805791967848357e-01	  -6.5218723570208703e-01	   4.8389237554716708e-01	  -8.7512751578688197e-01	   9.6127370691515912e-01	  -2.7559546511796734e-01	   8.4809427921282243e-01	  -5.2984534872591182e-01	   6.6922775626974196e-01	  -7.4305733980505639e-01	   4.3852781286703379e-01	  -8.9871761824393748e-01	   8.0540244960396490e-01	  -5.9272834770401583e-01	   9.9711156806208401e-01	  -7.5950779039928168e-02	   6.9745040999999997e-01	   4.5628059999999998e-01	   8.3622041000000003e-01	   9.2224114000000001e-01	   1.3156071000000000e-02	   1.7719848999999999e-01	
   4.7245304461708174e-02	   9.9888331711282496e-01	  -9.9553576241264097e-01	   9.4385092877432811e-02	  -1.4131408485711616e-01	  -9.8996481221354315e-01	  -6.2512119992679294e-01	  -7.8052769675526990e-01	  -2.1844697080417316e-01	   9.7584882074350054e-01	   8.9823286494574894e-01	  -4.3951987478537513e-01	  -9.0456184189296140e-01	  -4.2634243770848457e-01	   7.5012205341732752e-01	  -6.6129940645442298e-01	  -8.0919013624934688e-01	  -5.8754686910642584e-01	   7.9897744000000004e-01	   1.0340134000000001e-02	   4.9272074999999999e-01	   7.2912332000000002e-01	   1.4542400999999999e-01	   5.8923868000000001e-01	
  -8.9508658140423558e-01	  -4.4589237691406958e-01	   6.0235997641984262e-01	   7.9822456665244690e-01	  -1.8324208273251011e-01	  -9.8306782020156269e-01	  -9.9352941956860086e-01	   1.1357505206549177e-01	   9.7420141509664171e-01	  -2.2568031111220332e-01	  -9.4226611339915090e-01	   3.3486500494924587e-01	   8.9813679435259819e-01	  -4.3971615688991761e-01	   9.3993710160981458e-01	   3.4134768933939069e-01	   8.3865260176257206e-01	   5.4466669951160840e-01	   8.4686607000000003e-01	   9.4159585999999995e-01	   5.3784703000000000e-01	   3.2934529000000001e-01	   9.4645277999999999e-02	   9.1787079999999999e-01	
   9.6697647104480511e-01	  -2.5486565960469304e-01	   8.7008699110852949e-01	  -4.9289819223010517e-01	   7.1573082528343146e-01	  -6.9837624940936971e-01	   4.9954012662125062e-02	   9.9875151895701875e-01	  -9.9500919323790449e-01	   9.9783292048591099e-02	  -1.4936341633799907e-01	  -9.8878236728809110e-01	   9.8008658925589121e-01	  -1.9857058583978168e-01	   3.0285181953871909e-01	   9.5303765686466302e-01	  -2.0624310978162025e-01	  -9.7850078163873055e-01	   8.6386870000000004e-01	   2.1529398999999999e-01	   9.3838275000000004e-01	   4.2993400999999998e-01	   5.0790226000000005e-01	   1.9699185000000000e-01	
   1.3252253894425822e-01	   9.9117999206590501e-01	  -9.6487555334353514e-01	   2.6270737819864687e-01	  -3.8825805513292089e-01	  -9.2155069454935679e-01	   9.8800138772043022e-01	   1.5444499947393625e-01	   9.5229348427499172e-01	   3.0518374761346023e-01	   8.9373318024120074e-01	   4.4859893282970426e-01	   8.1372576038520761e-01	   5.8124898871784347e-01	  -2.2150340972032959e-02	   9.9975465109936978e-01	   2.8401524573435671e-01	   9.5881976418430848e-01	   8.7062484999999995e-02	   6.5568077000000002e-01	   3.3139590000000002e-01	   1.9491269000000000e-01	   9.5807690000000001e-01	   4.5322902999999998e-01	
  -9.8272837898061371e-01	  -1.8505386552605488e-01	   9.3151013370772962e-01	   3.6371537058503278e-01	  -8.4811450842460978e-01	  -5.2981296756467045e-01	  -6.1278144819800351e-01	  -7.9025242596549972e-01	  -2.4899779348871520e-01	   9.6850405205024881e-01	   9.1794390518224767e-01	  -3.9671020523647316e-01	  -8.7600019767550230e-01	  -4.8231074389078349e-01	   4.5595845309075828e-01	   8.9000106126626766e-01	   7.4843698542327508e-01	  -6.6320590984287853e-01	   1.7113137000000000e-01	   8.0712225999999998e-01	   5.0445740999999999e-01	   7.1146816000000002e-01	   4.1467701000000001e-01	   7.5351853999999996e-01	
   7.4938898006623766e-01	  -6.6213001484246581e-01	   1.2316768688943205e-01	  -9.9238587298807657e-01	  -5.6478796555586008e-01	  -8.2523605953888890e-01	   0.0000000000000000e+00	   0.0000000000000000e+00	   0.0000000000000000e+00	   0.0000000000000000e+00	   0.0000000000000000e+00	   0.0000000000000000e+00	   0.0000000000000000e+00	   0.0000000000000000e+00	   0.0000000000000000e+00	   0.0000000000000000e+00	   0.0000000000000000e+00	   0.0000000000000000e+00	   3.9965740999999999e-01	   8.9580594000000002e-01	   2.1821591000000001e-01	   5.0154029000000000e-01	   5.6356702000000003e-01	   5.4666499000000002e-01	
   6.6532570016559367e-01	   7.4655322161193738e-01	  -1.1468342539832498e-01	   9.9340208975968380e-01	  -8.1792936076665212e-01	   5.7531866021871370e-01	  -1.9224254218596390e-01	   9.8134744355599046e-01	  -9.2608560994775579e-01	  -3.7731345463380067e-01	   5.4830864606235519e-01	  -8.3627604811644995e-01	   7.1526911390461367e-01	   6.9884912155207635e-01	  -8.6053199948885373e-01	   5.0939638578980462e-01	   6.0472419152587342e-01	  -7.9643496418940496e-01	   5.6681848999999995e-01	   1.1749756000000000e-01	   5.5095559999999999e-01	   1.9165251000000000e-01	   5.8420760000000005e-01	   9.1905554000000000e-01	
  -7.3426930070700325e-01	   6.7885830188578267e-01	   7.8302811921503152e-02	  -9.9692962120963469e-01	   6.1927859880101499e-01	   7.8517132975360959e-01	   9.9169953770935282e-01	   1.2857692991767938e-01	   9.6693594618588830e-01	   2.5501936391890101e-01	   9.2612032394484944e-01	   3.7722824069293531e-01	   8.6993024805279828e-01	   4.9317477989329189e-01	  -8.1546004237090808e-01	   5.7881337173257918e-01	  -6.4088900975970187e-01	   7.6763355656799481e-01	   7.4694870999999996e-01	   5.5798236000000001e-01	   4.6047434999999998e-02	   6.0392290999999998e-01	   7.5733245000000005e-01	   8.3761284000000003e-01	
  -4.2290376522037293e-01	  -9.0617459982192816e-01	  -6.4230481072486345e-01	   7.6644930042351622e-01	   9.6617001096978006e-01	   2.5790600982267758e-01	  -9.7719651436885635e-01	  -2.1233693109150248e-01	   9.0982605538928507e-01	   4.1498981786879252e-01	  -8.0096118564789498e-01	  -5.9871627594839805e-01	   6.5556690213045277e-01	   7.5513709803656270e-01	   2.2084575172755500e-01	   9.7530874800951683e-01	   6.0567441884607220e-01	   7.9571257270164630e-01	   6.3666984000000004e-01	   9.7774329000000004e-01	   6.3712626000000006e-01	   5.4484125999999999e-01	   6.1690202999999999e-01	   9.7614727999999995e-01	
   8.6921699028925914e-01	   4.9443080789174326e-01	   5.1107635241503613e-01	   8.5953531748389589e-01	   1.9255507419161669e-02	   9.9981459552960650e-01	  -2.1931673643607566e-01	   9.7565371373199261e-01	  -9.0380033823805783e-01	  -4.2795437677487569e-01	   6.1575381758046022e-01	  -7.8793859921639153e-01	   6.3371010279845552e-01	   7.7357062095917972e-01	  -6.7302708746811712e-01	   7.3961783343439158e-01	   2.9175942033806040e-01	  -9.5649173579493041e-01	   9.9513551000000000e-01	   6.9356872000000003e-01	   1.6320981000000001e-01	   8.8698633999999998e-01	   7.3068392000000004e-01	   2.2863138999999999e-01	
  -1.9617412426718234e-01	   9.8056907608184551e-01	  -9.2303142593600818e-01	  -3.8472455956767226e-01	   5.5832388757535256e-01	  -8.2962306896731430e-01	   9.4077209853725774e-01	   3.3903961216029627e-01	   7.7010428277239174e-01	   6.3791801483859989e-01	   5.0821314585536770e-01	   8.6123132686856596e-01	   1.8612121268875984e-01	   9.8252679056973580e-01	  -5.1700690181671505e-01	   8.5598122845882640e-01	   1.4789661668562304e-01	   9.8900282647368909e-01	   8.2359053999999998e-01	   5.6726907999999998e-01	   6.8758925000000004e-01	   3.9869599000000000e-01	   6.2563318000000001e-01	   1.2653956999999999e-01	
  -1.0000000000000000e+00	   1.6088275864563740e-13	   1.0000000000000000e+00	  -3.2176551729127480e-13	  -1.0000000000000000e+00	   4.8353645435661231e-13	   3.5898994335862527e-01	  -9.3334142764980221e-01	  -7.4225244113474198e-01	  -6.7012037249252199e-01	  -8.9191226696015047e-01	   4.5220847852069879e-01	   1.0187737274096728e-01	   9.9479696467339407e-01	  -3.5898994335847512e-01	   9.3334142764985994e-01	  -3.5898994335877543e-01	  -9.3334142764974448e-01	   4.0955842999999997e-01	   6.8750612000000000e-01	   1.1880621000000000e-01	   7.5589958999999995e-01	   8.9126764999999997e-01	   9.3017773999999998e-01	
  -2.3918475057841605e-02	  -9.9971391235238261e-01	  -9.9885581310181482e-01	   4.7823264555155426e-02	   7.1700690761953303e-02	   9.9742619323148851e-01	  -9.4278301394767139e-01	  -3.3340694145705002e-01	   7.7767962277651048e-01	   6.2866080227590493e-01	  -5.2358326334618166e-01	  -8.5197451038382777e-01	   2.0957119136363125e-01	   9.7779339113660835e-01	  -3.1076162584540473e-01	   9.5048788098634940e-01	   3.5586148985353339e-01	   9.3453870975964581e-01	   4.1521881999999999e-01	   4.1613400000000000e-01	   6.9610092999999995e-01	   2.3216843000000001e-01	   6.1030793999999999e-01	   5.8259728000000000e-01	
   9.9976285119535990e-01	   2.1777083590892130e-02	   9.9905151726055064e-01	   4.3543838363100003e-02	   9.9786633557955684e-01	   6.5289940396873372e-02	  -5.8858148015463996e-01	   8.0843790189412390e-01	  -3.0714368243794637e-01	  -9.5166315381991018e-01	   9.5013964661358630e-01	   3.1182471347378704e-01	  -8.1132551667691588e-01	   5.8459465100951402e-01	  -6.0604731852778182e-01	   7.9542859371868535e-01	  -5.7083647899259404e-01	  -8.2106376990544261e-01	   6.9796999000000004e-01	   5.5496045000000005e-01	   8.0064700000000000e-01	   2.4233271000000001e-01	   1.6095793000000000e-01	   8.3131217999999996e-01	
   1.5074249841741385e-02	   9.9988637704076599e-01	  -9.9954553398341750e-01	   3.0145074121732264e-02	  -4.5209048056666840e-02	  -9.9897754828314833e-01	   9.8153051871716734e-01	   1.9130562152432531e-01	   9.2680431834638322e-01	   3.7554461185656224e-01	   8.3784292795450510e-01	   5.4591137382969235e-01	   7.1793248901100803e-01	   6.9611273600075640e-01	  -1.7648804854705299e-01	   9.8430278305003949e-01	   2.0607972107992620e-01	   9.7853520558006490e-01	   4.3536578999999997e-01	   4.5170589999999999e-01	   4.0073591999999998e-02	   2.3765174999999999e-01	   4.5646409999999998e-01	   4.3854770999999998e-01	
  -9.9924261952412352e-01	   3.8912560010460520e-02	   9.9697162534686457e-01	  -7.7766176794484443e-02	  -9.9319045748152457e-01	   1.1650199641053387e-01	   1.2319132887283346e-01	  -9.9238293843180592e-01	  -9.6964779298109083e-01	  -2.4450594587228289e-01	  -3.6209572918473404e-01	   9.3214091365317497e-01	   8.8043368486620055e-01	   4.7416930157162629e-01	  -8.4481865520463106e-02	   9.9642501694717722e-01	  -1.6171418681063271e-01	  -9.8683763699211213e-01	   9.4103612999999997e-01	   1.7656638999999999e-01	   8.8424137000000003e-01	   2.6206210000000002e-01	   1.8693171000000000e-01	   1.4419333000000001e-01	
  -8.1107354781964781e-03	  -9.9996710744404127e-01	  -9.9986843194000541e-01	   1.6220937390751790e-02	   2.4330072207125443e-02	   9.9970397997927174e-01	   0.0000000000000000e+00	   0.0000000000000000e+00	   0.0000000000000000e+00	   0.0000000000000000e+00	   0.0000000000000000e+00	   0.0000000000000000e+00	   0.0000000000000000e+00	   0.0000000000000000e+00	   0.0000000000000000e+00	   0.0000000000000000e+00	   0.0000000000000000e+00	   0.0000000000000000e+00	   4.7058146000000001e-01	   7.1469884999999997e-02	   4.9976246000000002e-01	   4.8757648999999997e-01	   9.3300770000000000e-01	   2.6871382999999999e-01	
   9.3002813700439457e-01	   3.6748831869888748e-01	   7.2990467123972980e-01	   6.8354895282080708e-01	   4.2763562616338735e-01	   9.0395119958759262e-01	   6.5811037483010093e-02	   9.9783210378570697e-01	  -9.9133781469081972e-01	   1.3133673196798396e-01	  -1.9629297764489578e-01	  -9.8054529060482487e-01	   9.6550132567193991e-01	  -2.6039813771555026e-01	  -3.0548552557933295e-01	   9.5219672004345757e-01	   4.2789775874863345e-01	  -9.0382714501053585e-01	   3.4023712999999997e-02	   3.0911512000000002e-01	   2.0495543999999999e-01	   5.8442808999999996e-01	   6.3459217999999995e-01	   8.0661643999999999e-01	
  -7.4851074817108254e-01	   6.6312265824081607e-01	   1.2053668025526766e-01	  -9.9270887409806075e-01	   5.6806474673122465e-01	   8.2298386589360883e-01	   9.9573320863782344e-01	   9.2278801551736567e-02	   9.8296924556835041e-01	   1.8377013431672723e-01	   9.6181703312632494e-01	   2.7369324943826062e-01	   9.3245707546642409e-01	   3.6128078057461560e-01	  -8.0650917316055426e-01	   5.9122157742074943e-01	  -6.8412484479202562e-01	   7.2936492700039179e-01	   2.4834043000000000e-01	   9.5582988000000002e-01	   1.0295743000000000e-01	   8.2718659000000005e-01	   9.1882069000000000e-01	   4.8950892000000001e-01	
  -7.9015501237578178e-01	  -6.1290705365285869e-01	   2.4868988716514362e-01	   9.6858316112855691e-01	   3.9714789063437050e-01	  -9.1775462568415866e-01	  -8.2603493623443991e-01	  -5.6361891746122639e-01	   3.6466743175967048e-01	   9.3113783309121645e-01	   2.2357885875368722e-01	  -9.7468584370472866e-01	  -7.3403532842761221e-01	   6.7911128441527724e-01	   3.0724963517897835e-01	   9.5162895168357753e-01	   9.9814165534732602e-01	   6.0936326279977492e-02	   9.0086695999999999e-01	   7.2856484999999999e-02	   2.8246363000000002e-01	   7.4593138000000003e-01	   9.7666052000000003e-01	   1.6481912000000001e-01	
   7.3464807082162453e-01	  -6.7844838568461896e-01	   7.9415575923869094e-02	  -9.9684159539050143e-01	  -6.1796307153030638e-01	  -7.8620712425214601e-01	  -8.8882834152567214e-01	   4.5824030737236893e-01	   5.8003164139855368e-01	  -8.1459394484399383e-01	  -1.4226878218770764e-01	   9.8982806265271472e-01	  -3.2712658995299920e-01	  -9.4498052580236924e-01	  -3.4208362960101169e-01	   9.3966951124264841e-01	  -9.6386842318582633e-01	   2.6637879567501038e-01	   8.5366217000000000e-01	   8.4202984999999997e-01	   9.1382452999999997e-01	   3.6010881000000000e-01	   5.4081407000000004e-01	   6.1906989999999995e-01	
   6.6591522501168110e-01	   7.4602742114324605e-01	  -1.1311382619528425e-01	   9.9358203603097772e-01	  -8.1656366305721073e-01	   5.7725538903901963e-01	   2.2592681290999000e-01	   9.7414427843535289e-01	  -8.9791415041666878e-01	   4.4017062428280235e-01	  -6.3165257745082837e-01	  -7.7525158587372478e-01	   6.1249964303697613e-01	  -7.9047086428253432e-01	  -5.7629023940744639e-01	   8.1724510397047234e-01	   8.7718644831770243e-01	  -4.8014990876576730e-01	   2.9901294000000000e-01	   9.1321580999999996e-01	   4.0650281999999999e-01	   4.0136907999999999e-01	   8.5502993000000005e-01	   6.2559485999999997e-01	
  -4.6322164228761076e-01	   8.8624246688836161e-01	  -5.7085142023273749e-01	  -8.2105338195410071e-01	   9.9208310705245817e-01	  -1.2558307489921103e-01	   9.8669133847858725e-01	  -1.6260443589070336e-01	   9.4711959485733233e-01	  -3.2088077698310746e-01	   8.8233806301956974e-01	  -4.7061613077631942e-01	   7.9407105392543453e-01	  -6.0782494298749357e-01	  -3.1294982585024506e-01	   9.4976965970718463e-01	  -6.0116373863177985e-01	   7.9912587203410024e-01	   2.5779269999999999e-01	   3.6880628999999998e-01	   7.8096018000000000e-01	   6.5874904000000001e-01	   4.3351130999999998e-01	   2.9978302000000001e-01	
  -9.5215187317012717e-01	  -3.0562527778084397e-01	   8.1318637916276393e-01	   5.8200336145434206e-01	  -5.9640199514239034e-01	  -8.0268590381928118e-01	  -9.7595297864632435e-01	  -2.1798115393622280e-01	   9.0496843305726549e-01	   4.2547871294563916e-01	  -7.9046029699994547e-01	  -6.1251328056357934e-01	   6.3793572966024481e-01	   7.7008960830727424e-01	   8.6263490602131587e-01	   5.0582706423598534e-01	   9.9587600746680982e-01	   9.0724736163664596e-02	   7.9043790999999997e-01	   7.2899208999999998e-01	   6.2393421999999998e-01	   3.0957040000000002e-01	   7.9408104000000002e-01	   8.3602018000000000e-01	
  -1.2468611624047324e-01	  -9.9219623684877334e-01	  -9.6890674483373440e-01	   2.4742619064217256e-01	   3.6630455426550834e-01	   9.3049501531407852e-01	   0.0000000000000000e+00	   0.0000000000000000e+00	   0.0000000000000000e+00	   0.0000000000000000e+00	   0.0000000000000000e+00	   0.0000000000000000e+00	   0.0000000000000000e+00	   0.0000000000000000e+00	   0.0000000000000000e+00	   0.0000000000000000e+00	   0.0000000000000000e+00	   0.0000000000000000e+00	   5.9877661000000004e-01	   9.3835318000000001e-02	   6.8551991999999995e-01	   2.2460580999999999e-01	   1.6377699000000001e-01	   5.3048331999999998e-01	
   9.9341011979743388e-01	   1.1461384682510248e-01	   9.7372733223190389e-01	   2.2771711060993957e-01	   9.4121105172762887e-01	   3.3781911743678866e-01	   2.2478942291309414e-01	   9.7440736622133461e-01	  -8.9893943069279625e-01	   4.3807293907032357e-01	  -6.2893357463161204e-01	  -7.7745903988641263e-01	   6.1618420010857711e-01	  -7.8760207689959338e-01	   1.1162751092794937e-01	   9.9375011889510256e-01	   3.3498866416263640e-01	  -9.4222215792377351e-01	   5.2773460999999999e-01	   7.2293697000000004e-02	   4.6384930000000002e-01	   6.2704190999999998e-01	   6.2004457999999996e-01	   3.2874437000000001e-01	
   3.0555483198012823e-02	   9.9953307221248855e-01	  -9.9813272489307192e-01	   6.1082431987693663e-02	  -9.1552338607726852e-02	  -9.9580026576390113e-01	   9.9352615339730632e-01	  -1.1360362016921918e-01	   9.7418843496889551e-01	  -2.2573633551746594e-01	   9.4223722356027106e-01	  -3.3494628604812415e-01	   8.9808621365429209e-01	  -4.3981945482674734e-01	   1.4390824716911799e-01	   9.8959103492135181e-01	  -8.3192903795282575e-02	   9.9653346193597980e-01	   9.7048981999999995e-01	   5.7746900000000001e-01	   2.8890013999999999e-02	   1.8641483000000000e-01	   3.9677438999999998e-01	   9.5897284999999999e-01	
  -9.9963454741388202e-01	   2.7032787807460160e-02	   9.9853845676671371e-01	  -5.4045817210491891e-02	  -9.9671252919681808e-01	   8.1019344246185870e-02	  -9.9905054747349742e-01	  -4.3566083056720724e-02	   9.9620399281418981e-01	   8.7049438258185396e-02	  -9.9146574135910348e-01	  -1.3036749484147991e-01	   9.8484479059786878e-01	   1.7343799593007317e-01	   9.9986315454613517e-01	   1.6543040260222214e-02	   9.9750772918838615e-01	  -7.0557283177778568e-02	   6.4465114000000001e-01	   4.5263924000000000e-01	   8.1888753000000003e-01	   5.5387560999999996e-01	   1.9858390000000001e-01	   4.9543859000000001e-01	
   3.6940346470874430e-01	  -9.2926911078609276e-01	  -7.2708216052235097e-01	  -6.8655045834239314e-01	  -9.0657680315849598e-01	   4.2204087476797986e-01	  -7.9056948090706403e-01	   6.1237235066447548e-01	   2.5000020828332919e-01	  -9.6824578277330597e-01	   3.9528441112864510e-01	   9.1855878109061717e-01	  -8.7499979171658404e-01	  -4.8412329472556326e-01	   2.7701960443190365e-01	   9.6086426656442570e-01	  -8.6109781511202943e-01	   5.0843933050983492e-01	   1.4127588000000000e-02	   2.8714867999999999e-01	   4.8197094000000001e-01	   3.4429989000000000e-01	   8.2718961000000002e-01	   4.8799459000000001e-01	
   9.8781893243811458e-01	  -1.5560770134162252e-01	   9.5157248656635285e-01	  -3.0742446683686109e-01	   8.9214370319679859e-01	  -4.5175171593066760e-01	   9.2243926161207335e-01	  -3.8614221296896928e-01	   7.0178838272685440e-01	  -7.1238547561669596e-01	   3.7227505352890639e-01	  -9.2812245125309289e-01	  -1.4986131739252303e-02	  -9.9988770162228402e-01	   8.5111626449357203e-01	  -5.2497724171101734e-01	   9.7128966879570966e-01	   2.3789993545757995e-01	   4.8467873000000000e-01	   2.8297091000000002e-01	   6.3167496000000001e-01	   5.1219903000000000e-01	   5.0934820000000003e-01	   4.0371321999999998e-01	
  -2.2098809704584710e-01	   9.7527650487646589e-01	  -9.0232852192811053e-01	  -4.3104899781235007e-01	   6.1979582298801728e-01	  -7.8476310935632443e-01	  -7.8142922149098037e-01	  -6.2399388763031993e-01	   2.2126325639999939e-01	   9.7521411565218241e-01	   4.3562607310455820e-01	  -9.0012772673188002e-01	  -9.0208514273453633e-01	   4.3155810183289495e-01	   7.8125313442568611e-01	  -6.2421433814839655e-01	  -4.3588002115906710e-01	  -9.0000478173972565e-01	   6.0987163000000000e-01	   3.9098449000000002e-01	   5.1526878999999998e-02	   8.2425678999999996e-01	   6.1994216999999996e-01	   1.3545753999999999e-01	
  -7.9133526042576074e-01	  -6.1138245444802675e-01	   2.5242298878621311e-01	   9.6761698762074000e-01	   3.9183283728858787e-01	  -9.2003642733446978e-01	  -9.3261903979180694e-01	   3.6086247604566474e-01	   7.3955654676438409e-01	  -6.7309443181320361e-01	  -4.4682999323848160e-01	   8.9461888932801914e-01	   9.3887771724121313e-02	  -9.9558278727621607e-01	   9.5863931705466332e-01	   2.8462371615339549e-01	   5.1738934440868178e-01	   8.5575011907235776e-01	   3.8524638000000000e-01	   8.6353519000000001e-01	   1.4944825000000000e-01	   9.8490493000000001e-01	   4.6037586000000003e-01	   2.1280705999999999e-01	
   7.6080123185430215e-01	  -6.4898496562630503e-01	   1.5763702878204724e-01	  -9.8749712260682965e-01	  -5.2094034048783411e-01	  -8.5359308903740516e-01	   7.1529322730165157e-01	   6.9882444074058248e-01	   2.3288802047224211e-02	   9.9972877906920599e-01	  -6.8197658254895488e-01	   7.3137400887292170e-01	  -9.9891526339841041e-01	   4.6564971273311766e-02	   9.9772252412098461e-01	   6.7451944832237362e-02	   9.0669412815287467e-02	  -9.9588104589842008e-01	   8.3875074000000005e-01	   9.5058485999999998e-01	   1.3102269999999999e-01	   3.1380798999999998e-01	   1.2598856999999999e-01	   3.9542255999999998e-01	
   5.2094034048793025e-01	   8.5359308903734643e-01	  -4.5724232330463849e-01	   8.8934214888251895e-01	  -9.9733228366355164e-01	   7.2995314660907556e-02	   9.6341208825142499e-01	  -2.6802452912192298e-01	   8.5632570357794291e-01	  -5.1643614260791337e-01	   6.8657698036336845e-01	  -7.2705711607487811e-01	   4.6658742121651786e-01	  -8.8447508634360061e-01	   7.3066410703484808e-01	   6.8273711096656242e-01	   2.7309633553292323e-01	   9.6198668988634606e-01	   8.0138688999999996e-01	   2.9338744000000000e-01	   3.7903379999999998e-01	   1.5621023000000001e-01	   5.4551992000000005e-01	   9.3287514000000005e-01	
  -9.5868307890944304e-01	   2.8447628058014002e-01	   8.3814649157457888e-01	  -5.4544519308655048e-01	  -6.4835063933028603e-01	   7.6134187358900030e-01	  -8.2747782980497997e-01	  -5.6149838929532170e-01	   3.6943911763751863e-01	   9.2925493722616925e-01	   2.1607247118945877e-01	  -9.7637732828762491e-01	  -7.2702947671842333e-01	   6.8660624813828741e-01	   9.5302196694521490e-01	   3.0290118936688532e-01	   6.3355602026826963e-01	  -7.7369681993777895e-01	   9.6599643000000002e-01	   2.1925813999999999e-01	   2.2334204999999999e-01	   6.7347383000000005e-01	   6.6945167999999999e-01	   5.4227879000000001e-01	
