   9.2112365311485778e-01	  -3.8927010631737335e-01	   6.9693756865532175e-01	  -7.1713180475893601e-01	   3.6280770535069695e-01	  -9.3186402921143052e-01	   0.0000000000000000e+00	   0.0000000000000000e+00	   0.0000000000000000e+00	   0.0000000000000000e+00	   0.0000000000000000e+00	   0.0000000000000000e+00	   0.0000000000000000e+00	   0.0000000000000000e+00	   0.0000000000000000e+00	   0.0000000000000000e+00	   0.0000000000000000e+00	   0.0000000000000000e+00	   1.6499929999999999e-01	   8.4286755000000002e-01	   3.1710909999999998e-01	   2.0740575999999999e-01	   4.4222922999999997e-01	   3.1273319999999999e-01	
   2.0530877536920067e-01	   9.7869724979505235e-01	  -9.1569661351279819e-01	   4.0187026762525374e-01	  -5.8130987602927453e-01	  -8.1368226478818473e-01	   8.0083348116638176e-01	  -5.9888708071132613e-01	   2.8266852911413110e-01	  -9.5921765134324632e-01	  -3.4809263679308278e-01	  -9.3746014113157838e-01	  -8.4019700529690722e-01	  -5.4228128521101371e-01	   7.5054728012288596e-01	   6.6081675243605786e-01	  -4.2171099753703895e-01	   9.0673029868661359e-01	   1.0462524000000001e-02	   7.3212953999999997e-01	   1.6711422000000001e-01	   6.0415582999999995e-01	   3.1715731000000003e-01	   6.8973883000000002e-01	
  -9.7094181742606167e-01	  -2.3931566428751863e-01	   8.8545602565324733e-01	   4.6472317204369717e-01	  -7.4851074817118124e-01	  -6.6312265824070471e-01	  -9.2387953251128674e-01	   3.8268343236508989e-01	   7.0710678118654735e-01	  -7.0710678118654768e-01	  -3.8268343236508989e-01	   9.2387953251128674e-01	  -4.2862637970157361e-16	  -1.0000000000000000e+00	   9.8861541220752813e-01	  -1.5046450327482341e-01	   8.0545113255096978e-01	   5.9266219136398446e-01	   1.9300676999999999e-02	   6.5476144999999997e-01	   6.1597751000000001e-01	   8.3774126000000004e-01	   7.6649668999999998e-01	   1.2934366000000000e-01	
   6.9790076180819149e-01	  -7.1619447545170711e-01	  -2.5869053335091940e-02	  -9.9966534004112906e-01	  -7.3400882586782690e-01	  -6.7913992928418965e-01	  -5.6460836765161626e-01	  -8.2535894686964972e-01	  -3.6243478235555465e-01	   9.3200913543746000e-01	   9.7387578934349328e-01	  -2.2708136632182715e-01	  -7.3728205707776340e-01	  -6.7558505631132892e-01	  -9.8515812792002455e-01	  -1.7164924407964216e-01	   1.9707690810533979e-01	   9.8038803149142917e-01	   7.1068889999999996e-01	   6.1279459000000001e-02	   7.9750249999999995e-02	   5.3196684999999999e-01	   4.5338665000000000e-01	   4.7098298999999999e-01	
  -1.4959407015202205e-02	   9.9988810181027432e-01	  -9.9955243228350699e-01	  -2.9915466169275668e-02	   4.4864830350331071e-02	  -9.9899306654132292e-01	  -3.4553686856331828e-01	   9.3840517499822862e-01	  -7.6120854492691226e-01	  -6.4850717122500123e-01	   8.7158810243868878e-01	  -4.9023890062634329e-01	   1.5887689773949390e-01	   9.8729840036570216e-01	  -9.3313114250231999e-01	  -3.5953618857121311e-01	   9.4346919581351418e-01	  -3.3146021865527198e-01	   6.9912587999999998e-01	   7.2579974999999997e-01	   6.6340076999999997e-01	   3.0489387000000001e-01	   3.6399502000000000e-01	   7.2439869999999995e-01	
  -6.5486073394529998e-01	  -7.5574957435424539e-01	  -1.4231483827324606e-01	   9.8982144188093835e-01	   8.4125353283114945e-01	  -5.4064081745564707e-01	   4.4191761211909875e-02	  -9.9902306692137466e-01	  -9.9609417648197907e-01	  -8.8297177637158497e-02	  -1.3223007319524202e-01	   9.9121905134172084e-01	   9.8440721684262411e-01	   1.7590460888833684e-01	  -7.8395070677746870e-01	   6.2082307410655035e-01	   7.2607180841433494e-01	  -6.8761888355828127e-01	   9.2923156000000007e-02	   2.8058377999999998e-02	   9.1785897000000005e-01	   9.6600699000000001e-01	   7.4839339999999999e-01	   7.3308368999999998e-02	
   9.7551196798043527e-01	   2.1994635783967467e-01	   9.0324719934612352e-01	   4.2912060877262015e-01	   7.8674493803347179e-01	   6.1727822128980758e-01	  -2.7826237602563586e-01	   9.6050510154218738e-01	  -8.4514010017713526e-01	  -5.3454486347974739e-01	   7.4860376072530288e-01	  -6.6301765393384027e-01	   4.2852357785483647e-01	   9.0353059894089360e-01	  -4.8270787682231098e-01	   8.7578142573001438e-01	  -6.0188679281048874e-02	  -9.9818701799131959e-01	   2.1128225000000000e-01	   8.1354989000000003e-02	   2.7375570999999999e-01	   2.8627531000000001e-01	   2.4856544000000000e-01	   1.4113587999999999e-01	
  -7.5814229506715602e-01	   6.5208915067673479e-01	   1.4955947913938927e-01	  -9.8875273056490443e-01	   5.3136756153958631e-01	   8.4714137813205292e-01	   0.0000000000000000e+00	   0.0000000000000000e+00	   0.0000000000000000e+00	   0.0000000000000000e+00	   0.0000000000000000e+00	   0.0000000000000000e+00	   0.0000000000000000e+00	   0.0000000000000000e+00	   0.0000000000000000e+00	   0.0000000000000000e+00	   0.0000000000000000e+00	   0.0000000000000000e+00	   6.8432252000000005e-01	   4.0239464000000003e-01	   3.0524896999999999e-02	   2.9940380999999999e-01	   8.7777680999999996e-01	   6.3427180000000005e-01	
  -1.6228623808852688e-01	  -9.8674372403733790e-01	  -9.4732635385414798e-01	   3.2026985386296614e-01	   4.6976229850674750e-01	   8.8279294452417179e-01	   8.7809599758834034e-01	  -4.7848450238156864e-01	   5.4210516196132530e-01	  -8.4031065289860829e-01	   7.3944748392096193e-02	  -9.9726233970065747e-01	  -4.1224398674977064e-01	  -9.1107348517485398e-01	  -6.1464447590334470e-01	  -7.8880426484743515e-01	   3.2963868364493759e-01	  -9.4410716459776578e-01	   6.1183394999999996e-01	   9.8822667000000003e-02	   9.7448000000000007e-02	   8.4906601999999998e-01	   6.3877778999999996e-02	   8.6474401000000001e-01	
   8.7630668004386969e-01	   4.8175367410170422e-01	   5.3582679497901797e-01	   8.4432792550200153e-01	   6.2790519529351191e-02	   9.9802672842826923e-01	  -9.0159933284690708e-01	   4.3257212463358308e-01	   6.2576271397997574e-01	  -7.8001347795561526e-01	  -2.2677515804272497e-01	   9.7394713803917365e-01	  -2.1684205158483025e-01	  -9.7620670181293157e-01	  -9.9847072845304985e-01	  -5.5282948749464572e-02	  -5.8168430774063196e-01	  -8.1341463358382105e-01	   2.9009073000000002e-01	   9.3451954999999998e-01	   4.8748292999999998e-01	   8.8628922999999998e-02	   2.2435531000000000e-01	   4.7303903000000003e-01	
  -8.7910746109224480e-01	   4.7662361654868435e-01	   5.4565985629610536e-01	  -8.3800675488143506e-01	  -8.0279840684612344e-02	   9.9677236477525466e-01	   0.0000000000000000e+00	   0.0000000000000000e+00	   0.0000000000000000e+00	   0.0000000000000000e+00	   0.0000000000000000e+00	   0.0000000000000000e+00	   0.0000000000000000e+00	   0.0000000000000000e+00	   0.0000000000000000e+00	   0.0000000000000000e+00	   0.0000000000000000e+00	   0.0000000000000000e+00	   2.2582717999999999e-01	   8.9524625999999996e-01	   9.5081552000000003e-01	   8.7680970999999996e-01	   4.0448233000000000e-01	   1.7514840000000001e-01	
   5.5152200485057597e-02	  -9.9847795908655690e-01	  -9.9391646956331203e-01	  -1.1013651315890584e-01	  -1.6478556127457045e-01	   9.8632941697762655e-01	   9.4174250494898193e-01	  -3.3633473560192495e-01	   7.7375789125516647e-01	  -6.3348143281422065e-01	   5.1561888452038140e-01	  -8.5681804715234466e-01	   1.9740254855928402e-01	  -9.8032251520726565e-01	  -2.8388364893548018e-01	  -9.5885873509452735e-01	   3.8776199181197335e-01	  -9.2175953355851492e-01	   5.0396200000000002e-01	   1.5087758000000000e-02	   5.2151011999999997e-02	   5.0691620000000004e-01	   1.2552785000000000e-01	   8.4033471999999998e-01	
   7.3611353290842896e-01	   6.7685808458573593e-01	   8.3726266661857521e-02	   9.9648879184407668e-01	  -6.1284945700904281e-01	   7.9019968555025477e-01	  -9.4120552407341829e-01	   3.3783451785405533e-01	   7.7173567709263591e-01	  -6.3594342885383348e-01	  -5.1151824073483954e-01	   8.5927241861678227e-01	   1.9115191059525855e-01	  -9.8156046531825147e-01	  -9.2150014818025483e-01	  -3.8837800774988318e-01	  -4.6416809885697197e-01	  -8.8574712870181205e-01	   5.5095393000000004e-01	   6.6784257999999996e-01	   3.7648691000000001e-01	   9.1186986000000003e-01	   3.7153010000000000e-02	   9.2893168999999998e-01	
  -9.6062375660343613e-01	   2.7785247569367133e-01	   8.4559600350179553e-01	  -5.3382337796483903e-01	  -6.6397546230205784e-01	   7.4775436171296827e-01	   0.0000000000000000e+00	   0.0000000000000000e+00	   0.0000000000000000e+00	   0.0000000000000000e+00	   0.0000000000000000e+00	   0.0000000000000000e+00	   0.0000000000000000e+00	   0.0000000000000000e+00	   0.0000000000000000e+00	   0.0000000000000000e+00	   0.0000000000000000e+00	   0.0000000000000000e+00	   5.9096868999999996e-01	   3.3959106999999999e-01	   4.7529394000000003e-01	   6.2421705999999999e-01	   5.4857096000000005e-01	   5.1221454000000000e-01	
   4.2035722830956318e-01	  -9.0735869456786589e-01	  -6.4659960121580362e-01	  -7.6282957186226319e-01	  -9.6396286069585124e-01	   2.6603684556668256e-01	   7.7468653390760611e-01	  -6.3234545478102344e-01	   2.0027845163556127e-01	  -9.7973901719307988e-01	  -4.6438049487973598e-01	  -8.8563579194567987e-01	  -9.1977708362092425e-01	  -3.9244122674075316e-01	  -2.4811906216388918e-01	  -9.6872954481161155e-01	   8.9940923056817668e-01	  -4.3710757939980910e-01	   6.6383354999999999e-01	   8.5298914000000003e-01	   1.7946259000000001e-01	   1.7178346999999999e-01	   8.6398741000000001e-01	   6.5807101000000001e-01	
   4.1171789747590759e-01	   9.1131134794757063e-01	  -6.6097674579603616e-01	   7.5040638424581796e-01	  -9.5598980959513036e-01	  -2.9339987039919824e-01	   0.0000000000000000e+00	   0.0000000000000000e+00	   0.0000000000000000e+00	   0.0000000000000000e+00	   0.0000000000000000e+00	   0.0000000000000000e+00	   0.0000000000000000e+00	   0.0000000000000000e+00	   0.0000000000000000e+00	   0.0000000000000000e+00	   0.0000000000000000e+00	   0.0000000000000000e+00	   4.5499264000000000e-01	   9.2199936000000005e-01	   8.3559209000000001e-01	   9.5727669999999998e-01	   7.9517086999999997e-01	   6.9727063000000006e-02	
  -9.5151555935664911e-01	  -3.0760061817591206e-01	   8.1076371939559355e-01	   5.8537354852420798e-01	  -5.9139302857690257e-01	  -8.0638346073728406e-01	   9.9367897498136926e-01	   1.1225905166166000e-01	   9.7479581064004950e-01	   2.2309891877507779e-01	   9.4358922888450536e-01	   3.3111835819408214e-01	   9.0045374488278251e-01	   4.3495178276054103e-01	  -9.1097005201337100e-01	  -4.1247250130736723e-01	  -9.8003195938730758e-01	  -1.9884003263798444e-01	   2.1536032999999999e-01	   2.0308403999999999e-01	   1.0015706000000001e-01	   5.1484876000000002e-01	   6.2204050000000000e-01	   7.9337672999999997e-02	
   9.0604228181799928e-01	  -4.2318717319648663e-01	   6.4182523288393367e-01	  -7.6685094407810728e-01	   2.5699931524305764e-01	  -9.6641158517714365e-01	   0.0000000000000000e+00	   0.0000000000000000e+00	   0.0000000000000000e+00	   0.0000000000000000e+00	   0.0000000000000000e+00	   0.0000000000000000e+00	   0.0000000000000000e+00	   0.0000000000000000e+00	   0.0000000000000000e+00	   0.0000000000000000e+00	   0.0000000000000000e+00	   0.0000000000000000e+00	   7.7087192000000004e-01	   3.5364733999999998e-01	   7.2887968999999997e-01	   5.4184500999999996e-01	   7.1009526999999995e-01	   1.4152586000000000e-01	
  -7.3869364986402686e-01	   6.7404131301468639e-01	   9.1336616698875245e-02	  -9.9582007533991934e-01	   6.0375409235297939e-01	   7.9717061910674436e-01	   0.0000000000000000e+00	   0.0000000000000000e+00	   0.0000000000000000e+00	   0.0000000000000000e+00	   0.0000000000000000e+00	   0.0000000000000000e+00	   0.0000000000000000e+00	   0.0000000000000000e+00	   0.0000000000000000e+00	   0.0000000000000000e+00	   0.0000000000000000e+00	   0.0000000000000000e+00	   5.5639775000000002e-01	   2.6303924999999999e-02	   9.2759762000000001e-01	   6.2920050000000005e-01	   9.1344391000000003e-01	   8.4908245000000004e-01	
   9.6095807382712972e-01	  -2.7669401935432703e-01	   8.4688083930709457e-01	  -5.3178270375644132e-01	   6.6667588637616815e-01	  -7.4534774603841836e-01	   9.5784377448602853e-01	   2.8728958156946466e-01	   8.3492939264328381e-01	   5.5035707436201564e-01	   6.4162006727151211e-01	   7.6702261327453725e-01	   3.9421418139936565e-01	   9.1901859566802457e-01	   9.9993901760047954e-01	   1.1043599059535955e-02	   8.4095639951432366e-01	  -5.4110288681165364e-01	   2.2983102999999999e-01	   1.8224955000000001e-01	   7.4102641999999996e-01	   5.9038179000000002e-01	   4.2024221000000000e-01	   2.7278266000000001e-01	
  -9.7656095834010792e-01	  -2.1524101524999850e-01	   9.0734261070829980e-01	   4.2039194425327264e-01	  -7.9558978057211804e-01	  -6.0583570466687497e-01	   0.0000000000000000e+00	   0.0000000000000000e+00	   0.0000000000000000e+00	   0.0000000000000000e+00	   0.0000000000000000e+00	   0.0000000000000000e+00	   0.0000000000000000e+00	   0.0000000000000000e+00	   0.0000000000000000e+00	   0.0000000000000000e+00	   0.0000000000000000e+00	   0.0000000000000000e+00	   1.1214706000000001e-01	   6.9831628999999995e-01	   8.2169175000000005e-01	   8.4906373000000002e-01	   4.9740588000000002e-01	   4.3108801000000002e-01	
   9.6420246251159969e-01	   2.6516713839872241e-01	   8.5937277742686558e-01	   5.1134961564240466e-01	   6.9301623390923361e-01	   7.2092197881481068e-01	   8.8340639192904546e-01	  -4.6860766820326971e-01	   5.6081370660218854e-01	  -8.2794201879546758e-01	   1.0744643425854015e-01	  -9.9421087489783833e-01	  -3.7097597297422874e-01	  -9.2864246482477009e-01	   9.7604197290563199e-01	  -2.1758232264244620e-01	   7.2752326408731405e-01	   6.8608301262437643e-01	   3.7068087999999999e-01	   6.9184524999999997e-01	   1.1459241000000001e-01	   2.1402615000000000e-01	   8.9214740000000003e-01	   1.6750271000000000e-01	
  -9.6029368567695550e-01	  -2.7899110603918664e-01	   8.4432792550206259e-01	   5.3582679497892172e-01	  -6.6131186532375175e-01	  -7.5011106963037155e-01	  -9.4120552407341829e-01	   3.3783451785405533e-01	   7.7173567709263591e-01	  -6.3594342885383348e-01	  -5.1151824073483954e-01	   8.5927241861678227e-01	   1.9115191059525855e-01	  -9.8156046531825147e-01	   9.9808654748629144e-01	  -6.1832384127533155e-02	   8.0958089589765503e-01	   5.8700832447040330e-01	   9.8703786999999998e-01	   4.3437271999999999e-01	   3.2516414000000000e-02	   7.7027080000000003e-01	   2.0011614000000000e-01	   3.8183534000000002e-01	
   9.3752573465878453e-01	   3.4791593359963618e-01	   7.5790900629498714e-01	   6.5236028249499156e-01	   4.8359266120364963e-01	   8.7529317261702222e-01	   5.2335615378476363e-01	  -8.5211403948979669e-01	  -4.5219667259123764e-01	  -8.9191825258675639e-01	  -9.9667597642799999e-01	  -8.1467772838668462e-02	  -5.9103633859482607e-01	   8.0664493208624466e-01	   7.8712391414770633e-01	  -6.1679489603659521e-01	   1.9419581098280628e-01	   9.8096278573487694e-01	   4.3290904999999998e-02	   9.4396088000000000e-01	   2.3491607000000000e-01	   5.2444398000000003e-01	   1.5855799000000001e-01	   7.6715111000000002e-01	
  -7.5940491665471488e-01	  -6.5061830020423306e-01	   1.5339165487870893e-01	   9.8816547208125571e-01	   5.2643216287732542e-01	  -8.5021713572963298e-01	  -9.1476896535281060e-01	   4.0397740039183933e-01	   6.7360451994530313e-01	  -7.3909197716472186e-01	  -3.1761605418187172e-01	   9.4821940611123245e-01	  -9.2513901418515551e-02	  -9.9571139294693478e-01	   9.5751513945593425e-01	   2.8838300524247745e-01	   4.3184496032820752e-01	   9.0194785339238370e-01	   1.2181277000000000e-01	   1.9757331000000000e-02	   7.9871990999999998e-01	   7.6268398000000004e-01	   8.4783151000000001e-02	   9.3325725999999998e-01	
   8.6402002290806668e-01	   5.0345744608054399e-01	   4.9306119997211229e-01	   8.6999462819149675e-01	  -1.1990524318100082e-02	   9.9992811107928004e-01	  -8.3797350500237666e-01	  -5.4571091698263829e-01	   4.0439919017193615e-01	   9.1458257964400469e-01	   1.6022189138537662e-01	  -9.8708102277416543e-01	  -6.7292258997656440e-01	   7.3971290910679166e-01	  -4.4928366242615597e-01	  -8.9338915970417954e-01	  -9.9876811155085721e-01	   4.9621158280862734e-02	   9.8265237000000005e-02	   4.4245842000000002e-01	   7.7299152000000004e-01	   6.9397357000000004e-01	   7.6429570999999996e-01	   5.0760293999999995e-01	
  -7.5574957435424173e-01	  -6.5486073394530409e-01	   1.4231483827323524e-01	   9.8982144188093990e-01	   5.4064081745566117e-01	  -8.4125353283114024e-01	   6.1568900373738233e-01	   7.8798924527995284e-01	  -2.4185410135373919e-01	   9.7031262676437191e-01	  -9.1350282516194947e-01	   4.0683238369276448e-01	  -8.8301318731675049e-01	  -4.6934817675656659e-01	   5.0716512995922711e-02	  -9.9871308958555982e-01	  -9.8132991801415004e-01	   1.9233198384652925e-01	   7.1925349000000005e-01	   8.1300481000000002e-01	   2.1964269000000000e-01	   7.0672789999999996e-01	   5.1488555000000003e-01	   1.5313890999999999e-01	
   8.6220631184723595e-01	   5.0655727791710470e-01	   4.8679944837842631e-01	   8.7351376466456432e-01	  -2.2763197855972344e-02	   9.9974088484135226e-01	   0.0000000000000000e+00	   0.0000000000000000e+00	   0.0000000000000000e+00	   0.0000000000000000e+00	   0.0000000000000000e+00	   0.0000000000000000e+00	   0.0000000000000000e+00	   0.0000000000000000e+00	   0.0000000000000000e+00	   0.0000000000000000e+00	   0.0000000000000000e+00	   0.0000000000000000e+00	   8.8811552999999999e-01	   9.2103995000000005e-01	   4.0514995999999998e-01	   7.1120386999999996e-01	   7.2868982000000004e-01	   2.5699664999999999e-01	
  -9.7880244621477253e-01	  -2.0480666806522024e-01	   9.1610845743204539e-01	   4.0093053540666901e-01	  -8.1457595205028344e-01	  -5.8005690957127165e-01	   5.2335615378476363e-01	  -8.5211403948979669e-01	  -4.5219667259123764e-01	  -8.9191825258675639e-01	  -9.9667597642799999e-01	  -8.1467772838668462e-02	  -5.9103633859482607e-01	   8.0664493208624466e-01	  -6.8678092080558173e-01	   7.2686447623847816e-01	  -3.3774364632658055e-01	  -9.4123813637465070e-01	   7.8680298999999998e-01	   8.4518658000000002e-01	   7.7873101000000000e-01	   2.5016511000000002e-01	   5.1224400999999997e-01	   4.6802475999999998e-01	
   9.1312325022861074e-01	   4.0768361494170685e-01	   6.6758814021612423e-01	   7.4453077508104148e-01	   3.0605725458783095e-01	   9.5201310753274804e-01	  -8.1586052815235988e-01	   5.7824873419917866e-01	   3.3125680279409514e-01	  -9.4354063537435096e-01	   2.7534182798905471e-01	   9.6134638802028372e-01	  -7.8053786120526791e-01	  -6.2510850836083320e-01	  -9.8072375149350122e-01	   1.9539939420712968e-01	  -5.0923868290592633e-01	  -8.6062533301793842e-01	   8.2142579000000004e-01	   5.6989555999999997e-01	   6.4044789000000002e-01	   4.2489619000000001e-01	   4.9166327999999998e-01	   1.1958305000000000e-01	
  -9.5105651629515986e-01	   3.0901699437492808e-01	   8.0901699437497132e-01	  -5.8778525229244027e-01	  -5.8778525229252321e-01	   8.0901699437491104e-01	   6.5733417721739440e-01	  -7.5359921673388908e-01	  -1.3582355892386211e-01	  -9.9073304216688773e-01	  -8.3589711192130389e-01	  -5.4888616149582714e-01	  -9.6310392168251235e-01	   2.6912977546114292e-01	  -3.9228698770771481e-01	   9.1984287749332883e-01	  -8.5803691754452682e-01	  -5.1358801400605802e-01	   8.2810125000000001e-01	   8.8958610000000005e-01	   2.3387036000000000e-01	   6.0726539000000002e-01	   5.9226716999999995e-01	   9.1504801999999996e-02	
  -2.6289541576111336e-01	  -9.6482433653582311e-01	  -8.6177200074358262e-01	   5.0729579018005122e-01	   7.1600723261465538e-01	   6.9809286118932834e-01	  -9.3228994019263833e-01	   3.6171185689109892e-01	   7.3832906516878638e-01	  -6.7444065085594151e-01	  -4.4438357982474963e-01	   8.9583661120884117e-01	   9.0259616946027868e-02	  -9.9591827051659032e-01	   5.9408315377894227e-01	   8.0440363400227477e-01	  -1.0389365090524795e-01	   9.9458841200849435e-01	   8.2067926000000002e-01	   5.2906036000000001e-01	   5.3494701999999998e-02	   7.1422262999999997e-01	   7.9060721000000000e-01	   9.6224510999999999e-02	
   7.0341934965483399e-01	  -7.1077508294197422e-01	  -1.0402437062340715e-02	  -9.9994589318780847e-01	  -7.1805390068126751e-01	  -6.9598749681040706e-01	   6.9590376507090113e-01	  -7.1813504980619358e-01	  -3.1435899520288080e-02	  -9.9950576997901841e-01	  -7.3965648674001916e-01	  -6.7298460727078435e-01	  -9.9802356844270068e-01	   6.2840725910017187e-02	  -2.0920325741013206e-02	  -9.9978114603691637e-01	   9.9994467343805971e-01	   1.0519033361112571e-02	   1.7349624000000000e-01	   6.4909486000000005e-01	   7.9113212000000002e-02	   6.6481904000000003e-01	   6.6355954999999994e-02	   2.9305397999999999e-01	
   7.0586327340720323e-01	   7.0834810598664544e-01	  -3.5140785097355874e-03	   9.9999382560705219e-01	  -7.1082419132698693e-01	   7.0336972427332634e-01	  -9.7480983765442630e-01	   2.2303762106907229e-01	   9.0050843917569789e-01	  -4.3483853437034359e-01	  -7.8083913314417908e-01	   6.2473214112181463e-01	   6.2183089805330305e-01	  -7.8315153975857232e-01	  -8.4607073940434219e-01	  -5.3307063689889145e-01	  -5.3009418650825313e-01	  -8.4793876750043295e-01	   8.6126411999999997e-01	   6.0531637000000005e-01	   8.1055871000000002e-01	   5.9235501000000002e-01	   5.1651091999999998e-01	   9.8904495999999997e-01	
  -5.3606413706004097e-01	   8.4417725683536016e-01	  -4.2527048191614719e-01	  -9.0506630542231981e-01	   9.9200864487101537e-01	   1.2616991916131065e-01	  -1.1084261871766295e-01	  -9.9383797164115784e-01	  -9.7542782775162162e-01	   2.2031920671551275e-01	   3.2708056831380533e-01	   9.4499645598886672e-01	   9.0291889430449435e-01	  -4.2981097043694616e-01	   8.9839416539121020e-01	   4.3919007683579431e-01	  -7.7955665988649192e-01	  -6.2633171245484320e-01	   6.0647854000000001e-01	   2.6190202000000001e-01	   4.6687824000000000e-01	   4.3075291999999998e-01	   2.2676408999999999e-03	   4.7345081000000000e-01	
  -8.4090637834748738e-01	  -5.4118061943727480e-01	   4.1424707429097507e-01	   9.1016446944569718e-01	   1.4422036438135499e-01	  -9.8954559596701208e-01	  -5.8573149703167526e-01	   8.1050515938211809e-01	  -3.1383722677006515e-01	  -9.4947680071356910e-01	   9.5338019435227439e-01	   3.0177177637549130e-01	  -8.0301239018654935e-01	   5.9596233203692073e-01	   9.3117503606447982e-01	  -3.6457242382044558e-01	   5.3915667641436307e-02	   9.9854549259549419e-01	   2.7647453000000000e-01	   8.0497854999999996e-01	   3.0320741000000001e-01	   2.9287809999999997e-01	   4.4433749000000000e-01	   5.2317800999999997e-01	
   4.7952997620112109e-01	  -8.7752549930161705e-01	  -5.4010200384910456e-01	  -8.4159956359196264e-01	  -9.9752017830499884e-01	   7.0381061901361619e-02	   0.0000000000000000e+00	   0.0000000000000000e+00	   0.0000000000000000e+00	   0.0000000000000000e+00	   0.0000000000000000e+00	   0.0000000000000000e+00	   0.0000000000000000e+00	   0.0000000000000000e+00	   0.0000000000000000e+00	   0.0000000000000000e+00	   0.0000000000000000e+00	   0.0000000000000000e+00	   3.0860159999999998e-01	   2.4184407999999999e-01	   3.4614645999999999e-01	   2.9824657999999998e-01	   5.2289269000000005e-01	   3.2277284000000001e-01	
   6.5888580579605172e-01	   7.5224297598614209e-01	  -1.3173898984097512e-01	   9.9128443877409855e-01	  -8.3248770674830930e-01	   5.5404351644337568e-01	   9.8700366564871478e-01	  -1.6069774110422369e-01	   9.4835247200799977e-01	  -3.1721851906267384e-01	   8.8505106674911627e-01	  -4.6549394114880943e-01	   7.9874482232736810e-01	  -6.0166993343960706e-01	   7.7120645256710196e-01	   6.3658511411975871e-01	   5.2943895856211831e-01	   8.4834803539388215e-01	   7.6785004999999995e-01	   1.8282825000000000e-01	   9.5235906000000004e-01	   2.8677187999999998e-01	   1.0750802000000000e-01	   6.9395834999999995e-01	
  -9.4905574701069728e-01	   3.1510821802353445e-01	   8.0141362186806531e-01	  -5.9811053049107032e-01	  -5.7211666012239248e-01	   8.2017225459680043e-01	  -9.8619319369480418e-01	   1.6559886687427089e-01	   9.4515403057991498e-01	  -3.2662495078995585e-01	  -8.7801575020744183e-01	   4.7863173984563873e-01	   7.8663228304291788e-01	  -6.1742177745418636e-01	   8.8377075429141960e-01	  -4.6792013619759426e-01	   9.8813388198635566e-01	  -1.5359502358662191e-01	   4.1472973000000002e-01	   7.3647012999999995e-01	   6.2006707999999999e-01	   9.0851057999999996e-01	   9.7236020999999995e-01	   8.7890208999999997e-01	
  -1.0357947651793006e-01	  -9.9462118017075807e-01	  -9.7854258408854311e-01	   2.0604468235146586e-01	   3.0629333373871864e-01	   9.5193717949622181e-01	   0.0000000000000000e+00	   0.0000000000000000e+00	   0.0000000000000000e+00	   0.0000000000000000e+00	   0.0000000000000000e+00	   0.0000000000000000e+00	   0.0000000000000000e+00	   0.0000000000000000e+00	   0.0000000000000000e+00	   0.0000000000000000e+00	   0.0000000000000000e+00	   0.0000000000000000e+00	   7.9939698000000003e-01	   7.3654421000000003e-01	   1.9862667000000001e-01	   6.7012808999999995e-01	   3.1366692000000002e-01	   2.8261652999999998e-01	
   9.7202291408039310e-01	   2.3488604578105707e-01	   8.8965709099467838e-01	   4.5662923739384742e-01	   7.5751124216147225e-01	   6.5282211819069313e-01	   8.5514919376723475e-01	  -5.1838195994772851e-01	   4.6256028720150327e-01	  -8.8658783022555798e-01	  -6.4033080429022574e-02	  -9.9794777649472732e-01	  -5.7207596140812556e-01	  -8.2020064275698346e-01	   9.5298530007548243e-01	  -3.0301653063825207e-01	   7.0946392252277013e-01	   7.0474175599194122e-01	   2.3413262000000001e-01	   2.6721027000000003e-01	   7.6888584000000004e-01	   7.7263203999999996e-01	   6.9289486000000000e-01	   4.4874707000000003e-01	
  -6.9938745647520040e-01	   7.1474274093910861e-01	  -2.1714371450299315e-02	  -9.9976421523903247e-01	   7.2976097451036581e-01	   6.8370236220279457e-01	  -9.8522227077075952e-01	   1.7128069703649704e-01	   9.4132584564538346e-01	  -3.3749911454699222e-01	  -8.6960810359314111e-01	   4.9374259099771889e-01	   7.7218869535999246e-01	  -6.3539327881103114e-01	   5.6663046314725529e-01	  -8.2397203728860058e-01	   8.1147373288690960e-01	  -5.8438889520129012e-01	   4.2911841000000001e-01	   9.6626665000000000e-01	   3.4347333000000002e-01	   1.6947193999999999e-01	   7.7074662999999999e-01	   3.6023817000000002e-01	
  -6.2427799058707423e-01	  -7.8120227244201290e-01	  -2.2055398093712969e-01	   9.7537476976431181e-01	   8.9965198265789670e-01	  -4.3660773023357663e-01	  -1.9339399903536689e-01	  -9.8112117556248302e-01	  -9.2519752227421703e-01	   3.7948589536061766e-01	   5.5124929649581367e-01	   8.3434058579987014e-01	   7.1198091044470069e-01	  -7.0219882025131253e-01	  -6.4572247478099398e-01	   7.6357218752565137e-01	   8.8718570899978810e-01	  -4.6141252447949793e-01	   2.9871193000000001e-01	   3.8529908000000002e-01	   8.0677697999999998e-01	   1.4093933000000000e-01	   5.2821147000000002e-01	   7.3821656999999996e-01	
   8.8649607580084955e-01	  -4.6273611009915200e-01	   5.7175058482061103e-01	  -8.2042749146849614e-01	   1.2721322375977442e-01	  -9.9187539323276164e-01	   0.0000000000000000e+00	   0.0000000000000000e+00	   0.0000000000000000e+00	   0.0000000000000000e+00	   0.0000000000000000e+00	   0.0000000000000000e+00	   0.0000000000000000e+00	   0.0000000000000000e+00	   0.0000000000000000e+00	   0.0000000000000000e+00	   0.0000000000000000e+00	   0.0000000000000000e+00	   2.9750174000000001e-01	   5.5987847999999996e-01	   3.0099556999999999e-01	   1.4465523999999999e-01	   4.8145234999999997e-01	   1.7444746000000000e-01	
   3.4022513023652790e-01	   9.4034401192092332e-01	  -7.6849372151107531e-01	   6.3985732784587057e-01	  -8.6314688321064703e-01	  -5.0495292652260726e-01	  -9.8816887616674076e-01	   1.5336972378980346e-01	   9.5295545564927875e-01	  -3.0311037519074707e-01	  -8.9519296712508345e-01	   4.4567875382363625e-01	   8.1624820090344907e-01	  -5.7770137140384448e-01	  -4.8042018596522046e-01	  -8.7703845121929691e-01	  -1.9197958321380512e-01	  -9.8139891972074933e-01	   2.1782667000000000e-01	   8.5826075999999996e-01	   7.8268795000000002e-01	   5.5574670000000000e-02	   7.9769150000000000e-01	   8.3431641000000001e-01	
  -7.9752851511567713e-01	   6.0328125080876105e-01	   2.7210346484523357e-01	  -9.6226800030927906e-01	   3.6350797056397716e-01	   9.3159108805122148e-01	   0.0000000000000000e+00	   0.0000000000000000e+00	   0.0000000000000000e+00	   0.0000000000000000e+00	   0.0000000000000000e+00	   0.0000000000000000e+00	   0.0000000000000000e+00	   0.0000000000000000e+00	   0.0000000000000000e+00	   0.0000000000000000e+00	   0.0000000000000000e+00	   0.0000000000000000e+00	   5.2828772999999998e-05	   2.6204238000000002e-01	   2.5409383000000002e-01	   9.0209514000000002e-01	   3.1403300000000001e-01	   4.6931322999999997e-03	
  -7.2195609395449045e-01	  -6.9193886897758161e-01	   4.2441203196050208e-02	   9.9909896620468563e-01	   6.6067472339019173e-01	  -7.5067230525262740e-01	  -9.9935621137774056e-01	  -3.5877050892301331e-02	   9.9742567443854246e-01	   7.1707907310273294e-02	  -9.9421087489783833e-01	  -1.0744643425854046e-01	   9.8971595205836249e-01	   1.4304661562305165e-01	   6.9666658081876132e-01	   7.1739506213124749e-01	   7.4631603285210191e-01	   6.6559175108162250e-01	   2.7460917000000001e-01	   1.4870910000000001e-01	   2.9471975000000000e-01	   4.2892738000000002e-01	   4.2410953000000001e-01	   7.5441102000000004e-01	
   8.6782526661299275e-01	  -4.9686950663940738e-01	   5.0624138674382380e-01	  -8.6239182414241977e-01	   1.0832866229987463e-02	  -9.9994132278311376e-01	  -6.4877837318866094e-01	   7.6097741259690133e-01	  -1.5817324496534921e-01	  -9.8741137555586811e-01	   8.5401713428984261e-01	   5.2024487920532669e-01	  -9.4996244915426331e-01	   3.1236412277474151e-01	  -1.8491979312443826e-01	   9.8275361617793855e-01	  -9.4113273624594851e-01	  -3.3803723576880401e-01	   4.8215411000000002e-01	   1.3130475000000000e-01	   2.3355746999999999e-01	   1.2815959000000000e-02	   2.0428346999999999e-02	   3.5746071000000001e-01	
   1.5142777750458328e-01	   9.8846832432811038e-01	  -9.5413925640004482e-01	   2.9936312297337075e-01	  -4.4039415155765255e-01	  -8.9780453957073270e-01	  -9.5298721747359794e-01	  -3.0301050036579485e-01	   8.1636927333614129e-01	   5.7753026721776302e-01	  -6.0299174698150637e-01	  -7.9774742435948420e-01	   3.3291758089475859e-01	   9.4295592915638526e-01	   1.5520754521809543e-01	  -9.8788188459317994e-01	  -4.4382501788270368e-01	  -8.9611347133129171e-01	   5.7454265999999998e-01	   4.6714443000000000e-01	   4.3695643000000001e-01	   8.0304882000000000e-01	   6.4094145999999996e-01	   8.5049602999999996e-01	
  -9.4668579433865330e-01	  -3.2215835670892190e-01	   7.9242798640521406e-01	   6.0996547964764192e-01	  -5.5367484119374633e-01	  -8.3273295252984902e-01	  -7.5498912487880099e-01	   6.5573731121138912e-01	   1.4001715737051565e-01	  -9.9014907748372938e-01	   5.4356626265643504e-01	   8.3936625980659685e-01	  -9.6079039128376054e-01	  -2.7727571840462045e-01	   9.2598873401552073e-01	  -3.7755114153758462e-01	   5.0348622479034444e-01	   8.6400325314570825e-01	   2.0267938999999999e-01	   7.5787746000000000e-01	   8.9239966999999998e-01	   8.5751299999999997e-01	   3.8246365999999998e-01	   3.6464211000000002e-01	
   4.9184443832463437e-01	  -8.7068309303048086e-01	  -5.1617809697824990e-01	  -8.5648127370066440e-01	  -9.9960309069212627e-01	   2.8171991032739308e-02	  -7.8822148431154104e-01	  -6.1539165713365918e-01	   2.4258621666057781e-01	   9.7012985083766345e-01	   4.0579814877209797e-01	  -9.1396272487073471e-01	  -8.8230385497261443e-01	   4.7068026036839894e-01	  -9.2349346468490678e-01	   3.8361415600087900e-01	   1.4812875823166799e-01	   9.8896808390601976e-01	   8.8104267999999997e-01	   2.4045532000000000e-01	   9.3680103000000003e-01	   1.5520083000000001e-01	   3.3954646999999999e-01	   9.0058081000000001e-01	
   6.9165762483750859e-01	   7.2222553956789448e-01	  -4.3219460008272467e-02	   9.9906560258903587e-01	  -7.5144376294967130e-01	   6.5979714391927924e-01	  -1.8652060386304520e-01	   9.8245104933251759e-01	  -9.3042012866912993e-01	  -3.6649472597476718e-01	   5.3360565235444168e-01	  -8.4573341412964798e-01	   7.3136323166536066e-01	   6.8198814019600085e-01	  -8.3855963705439318e-01	   5.4480981553492991e-01	   5.8054284135204992e-01	  -8.1422970306596443e-01	   2.9061355999999999e-01	   1.0857216000000000e-01	   8.1842287000000002e-01	   6.5954285999999995e-01	   1.9406074000000001e-01	   7.8209318000000000e-02	
  -9.1569661351286313e-01	   4.0187026762510575e-01	   6.7700057599785179e-01	  -7.3598248627163465e-01	  -3.2415765606211766e-01	   9.4600307294232078e-01	   0.0000000000000000e+00	   0.0000000000000000e+00	   0.0000000000000000e+00	   0.0000000000000000e+00	   0.0000000000000000e+00	   0.0000000000000000e+00	   0.0000000000000000e+00	   0.0000000000000000e+00	   0.0000000000000000e+00	   0.0000000000000000e+00	   0.0000000000000000e+00	   0.0000000000000000e+00	   7.8175709000000004e-01	   6.6663192999999998e-01	   2.9098837000000000e-01	   4.6015492000000002e-01	   5.7753321000000002e-01	   5.9121053999999995e-01	
   9.9161127207924943e-02	  -9.9507138982630472e-01	  -9.8033414170170741e-01	  -1.9734480133506574e-01	  -2.9358320427103479e-01	   9.5593352392828645e-01	   2.5640890891171814e-01	   9.6656839976832587e-01	  -8.6850894286140445e-01	   4.9567349754628365e-01	  -7.0179576975004321e-01	  -7.1237819840373018e-01	   5.0861556766046867e-01	  -8.6099373071667562e-01	   9.8723035735349551e-01	  -1.5929915731004213e-01	  -9.3637876448581525e-01	  -3.5099118139921692e-01	   8.6923024000000004e-01	   9.2183324000000000e-01	   7.8424636000000003e-01	   4.4645807999999998e-01	   4.4735416000000000e-01	   4.7508096999999999e-01	
   8.0728773238199003e-01	   5.9015804420980700e-01	   3.0342696570891092e-01	   9.5285469851425064e-01	  -3.1738199820060103e-01	   9.4829777349638111e-01	   0.0000000000000000e+00	   0.0000000000000000e+00	   0.0000000000000000e+00	   0.0000000000000000e+00	   0.0000000000000000e+00	   0.0000000000000000e+00	   0.0000000000000000e+00	   0.0000000000000000e+00	   0.0000000000000000e+00	   0.0000000000000000e+00	   0.0000000000000000e+00	   0.0000000000000000e+00	   5.8471562999999997e-02	   6.2220288999999995e-01	   7.9958209999999996e-01	   7.1316312999999998e-01	   1.3083591000000000e-01	   4.0891724000000002e-01	
  -9.1514561724298638e-01	   4.0312342928804495e-01	   6.7498300151809321e-01	  -7.3783327904183460e-01	  -3.2026985386261214e-01	   9.4732635385426767e-01	   8.8623853637398198e-01	  -4.6322916212788479e-01	   5.7083748670859558e-01	  -8.2106306929992523e-01	   1.2555782108207350e-01	  -9.9208630348630555e-01	  -3.4828912753642782e-01	  -9.3738715781682969e-01	  -6.2429878401126826e-01	   7.8118565545077168e-01	  -9.9777584077770931e-01	  -6.6658619550177170e-02	   6.0308786999999997e-01	   5.8031798000000001e-01	   6.4032250000000002e-01	   5.0770152999999996e-01	   3.3413441999999999e-01	   4.0280227000000002e-01	
   2.8042738930602873e-01	  -9.5987524154288151e-01	  -8.4272095865400998e-01	  -5.3835061609072787e-01	  -7.5307146600366426e-01	   6.5793872593965153e-01	   3.8510276353810402e-01	   9.2287369748807724e-01	  -7.0339172303063024e-01	   7.1080242259857351e-01	  -9.2685895631595283e-01	  -3.7540974294349716e-01	  -1.0480167944002231e-02	  -9.9994508153191364e-01	   9.9383697588346775e-01	  -1.1085154652418533e-01	  -7.7785025069641300e-01	  -6.2844966981575179e-01	   4.8937023000000002e-01	   8.3442022999999999e-01	   5.1059741999999997e-01	   5.0578279999999998e-01	   2.8213843999999999e-01	   9.8950322999999996e-01	
   5.7357643635102018e-01	   8.1915204428900990e-01	  -3.4202014332572817e-01	   9.3969262078588678e-01	  -9.6592582628909285e-01	   2.5881904510242920e-01	   0.0000000000000000e+00	   0.0000000000000000e+00	   0.0000000000000000e+00	   0.0000000000000000e+00	   0.0000000000000000e+00	   0.0000000000000000e+00	   0.0000000000000000e+00	   0.0000000000000000e+00	   0.0000000000000000e+00	   0.0000000000000000e+00	   0.0000000000000000e+00	   0.0000000000000000e+00	   9.2398216000000000e-01	   1.5579944000000001e-01	   4.4122167000000001e-01	   7.7711441999999997e-01	   2.6503160999999997e-01	   7.9971183999999995e-01	
  -9.8184441002763667e-01	   1.8968804521498456e-01	   9.2803689100503595e-01	  -3.7248829368680436e-01	  -8.4053125743780643e-01	   5.4176305269925884e-01	  -6.3299475193585764e-01	  -7.7415608505111044e-01	  -1.9863528804332414e-01	   9.8007347803312461e-01	   8.8446494169724077e-01	  -4.6660665116187150e-01	  -9.2108804468789129e-01	  -3.8935435522546447e-01	   7.6835051322968251e-01	   6.4002928747025589e-01	   4.7465420430042193e-01	  -8.8017236172236935e-01	   6.9464663999999998e-01	   2.9618580000000000e-01	   3.0666164000000001e-01	   7.8768561000000004e-01	   7.5464668000000001e-01	   9.6141726999999999e-01	
   2.7821746391634461e-01	  -9.6051811163140355e-01	  -8.4519008554391495e-01	  -5.3446582612761095e-01	  -7.4851074817087671e-01	   6.6312265824104843e-01	   0.0000000000000000e+00	   0.0000000000000000e+00	   0.0000000000000000e+00	   0.0000000000000000e+00	   0.0000000000000000e+00	   0.0000000000000000e+00	   0.0000000000000000e+00	   0.0000000000000000e+00	   0.0000000000000000e+00	   0.0000000000000000e+00	   0.0000000000000000e+00	   0.0000000000000000e+00	   7.1584581999999997e-01	   1.7961534000000001e-01	   2.1527963000000000e-01	   7.1880263000000000e-02	   4.2734028000000002e-01	   7.7789379999999997e-01	
   8.5311150583286910e-01	   5.2172862545156029e-01	   4.5559848276885095e-01	   8.9018538659018720e-01	  -7.5758890452659364e-02	   9.9712616579717828e-01	  -6.4121804554903949e-01	  -7.6735872840691000e-01	  -1.7767883612453980e-01	   9.8408852812815018e-01	   8.6907979761945087e-01	  -4.9467191690021606e-01	  -9.3686046238685783e-01	  -3.4970340864264232e-01	  -1.4667747780555568e-01	  -9.8918436982425106e-01	  -9.4738350700554463e-01	   3.2010075078617839e-01	   4.7729588000000001e-01	   2.5766781000000000e-01	   2.0087194999999999e-01	   8.5330625000000004e-01	   4.6781430000000002e-01	   7.0114999000000000e-01	
  -7.4266796216658282e-01	   6.6965983750807034e-01	   1.0311140405732969e-01	  -9.9466981373384711e-01	   5.8951288951179881e-01	   8.0775896968059080e-01	  -4.4132027916435435e-01	   8.9734965938495592e-01	  -6.1047282239659273e-01	  -7.9203720437561398e-01	   9.8014835196898553e-01	  -1.9826549909775443e-01	  -2.5464586623027630e-01	   9.6703437519657609e-01	  -2.7316459470187293e-01	  -9.6196730932052021e-01	   9.2867345948143032e-01	   3.7089837645208462e-01	   3.1790213000000000e-01	   8.8510661999999996e-01	   2.6729351000000001e-01	   7.2626886000000002e-01	   5.1450752000000000e-01	   7.7677015999999999e-01	
  -5.4473906004356309e-01	  -8.3860560245138804e-01	  -4.0651871292571079e-01	   9.1364245525327004e-01	   9.8763230318210460e-01	  -1.5678786212973087e-01	   5.1103186270225665e-01	  -8.5956176933543404e-01	  -4.7769287060612381e-01	  -8.7852690418226864e-01	  -9.9926441763312768e-01	  -3.8348711221189345e-02	  -5.4361904274416206e-01	   8.3933207752707795e-01	  -9.9921233195846115e-01	   3.9682687183885373e-02	   4.4245429887698423e-01	  -8.9679105337044718e-01	   3.2520912000000002e-01	   2.6895616999999999e-01	   7.7605791000000002e-01	   2.0555739000000001e-01	   4.2505437000000001e-01	   8.3553280999999993e-02	
   9.0488743275958894e-01	  -4.2565095328656377e-01	   6.3764253193247900e-01	  -7.7033239674230081e-01	   2.4910199471782055e-01	  -9.6847725643279969e-01	  -8.1019811427414612e-01	   5.8615613587730842e-01	   3.1284196874676462e-01	  -9.4980519191603097e-01	   3.0327016798526646e-01	   9.5290461495901480e-01	  -8.0425980518129669e-01	  -5.9427785232981944e-01	  -4.8364017364124678e-01	   8.7526692068206524e-01	  -9.8263600966313702e-01	  -1.8554372129853181e-01	   2.1080185000000001e-01	   9.0149820000000003e-01	   3.2529048999999999e-01	   4.4614658000000001e-01	   7.9254844000000002e-01	   4.1162875999999998e-01	
   1.3173898984082469e-01	   9.9128443877411854e-01	  -9.6528967711143820e-01	   2.6118162121806243e-01	  -3.8607156377369789e-01	  -9.2246883288560566e-01	  -9.1476896535281071e-01	  -4.0397740039183910e-01	   6.7360451994530346e-01	   7.3909197716472153e-01	  -3.1761605418187239e-01	  -9.4821940611123223e-01	  -9.2513901418514580e-02	   9.9571139294693489e-01	   2.7994577119153569e-01	  -9.6001581507388534e-01	  -5.2096725005816746e-01	  -8.5357666578159863e-01	   2.1752021999999999e-01	   9.5274444999999999e-02	   7.1571107000000000e-01	   6.8751200000000002e-03	   8.7835876000000002e-01	   5.6977095000000000e-01	
  -8.0901699437494745e-01	  -5.8778525229247303e-01	   3.0901699437494773e-01	   9.5105651629515353e-01	   3.0901699437494701e-01	  -9.5105651629515375e-01	  -3.6606563696371719e-01	   9.3058903358805389e-01	  -7.3199189886869609e-01	  -6.8131333466372190e-01	   9.0197979838701736e-01	  -4.3177823393695469e-01	   7.1624280018798614e-02	   9.9743168313012232e-01	   8.4313983124850000e-01	  -5.3769436017337102e-01	  -2.5083318852782571e-01	   9.6803032573001779e-01	   3.4247891000000003e-01	   7.6156133999999998e-01	   3.4203765000000003e-01	   2.0574508000000000e-01	   7.4966129000000004e-01	   5.3158874000000000e-01	
   7.7072288972211522e-01	   6.3717048523797171e-01	   1.8802754548321543e-01	   9.8216375525650368e-01	  -4.8088862331775473e-01	   8.7678169002526196e-01	  -8.2425676182036856e-01	  -5.6621620481349733e-01	   3.5879841881319935e-01	   9.3341507093958365e-01	   2.3277271614589631e-01	  -9.7253116280048424e-01	  -7.4252738931429596e-01	   6.6981570309906591e-01	  -2.7449729937256878e-01	  -9.6158787047111105e-01	  -9.9604980731380643e-01	  -8.8796291308415778e-02	   8.8175181000000002e-01	   1.3117706000000001e-01	   9.3655222000000005e-01	   7.9274891999999997e-01	   8.5791611999999995e-01	   5.8495111000000000e-01	
  -2.4963574573548006e-01	  -9.6833981352162257e-01	  -8.7536398890218148e-01	   4.8346446294765189e-01	   6.8668003005464184e-01	   7.2695979003254108e-01	   5.0075168757948298e-02	   9.9874545179132757e-01	  -9.9498495494772599e-01	   1.0002469408936809e-01	  -1.4972324781920179e-01	  -9.8872794491835314e-01	   9.7999012114465667e-01	  -1.9904613148433997e-01	   9.5462443244746253e-01	  -2.9781234523498201e-01	  -9.7962553663890328e-01	   2.0083278608071156e-01	   4.9216027000000001e-01	   7.4792800999999998e-01	   3.4813263000000000e-01	   5.3811417000000000e-02	   8.9557816000000001e-01	   3.9089641000000003e-01	
   7.4477218274367885e-01	   6.6731881122235448e-01	   1.0937120837756729e-01	   9.9400097523997966e-01	  -5.8185891555832969e-01	   8.1328974073529570e-01	   0.0000000000000000e+00	   0.0000000000000000e+00	   0.0000000000000000e+00	   0.0000000000000000e+00	   0.0000000000000000e+00	   0.0000000000000000e+00	   0.0000000000000000e+00	   0.0000000000000000e+00	   0.0000000000000000e+00	   0.0000000000000000e+00	   0.0000000000000000e+00	   0.0000000000000000e+00	   5.0362985999999998e-01	   1.3484335000000000e-01	   4.2124001999999999e-01	   2.0763475999999999e-02	   7.6445532999999999e-01	   8.8388739999999993e-02	
  -9.5876981735444644e-01	   2.8418380905695784e-01	   8.3847912533975710e-01	  -5.4493371740926067e-01	  -6.4904713836058336e-01	   7.6074819236455493e-01	   3.7379668228438007e-01	  -9.2751066857108988e-01	  -7.2055208062638043e-01	  -6.9340082139048131e-01	  -9.1247663658687639e-01	   4.0912881551303804e-01	   3.8390601790011650e-02	   9.9926280912190502e-01	  -9.4801462065995212e-02	   9.9549619928463295e-01	  -6.2196849153699107e-01	  -7.8304226931577570e-01	   4.2384922000000003e-01	   6.7293228000000005e-01	   9.5639295000000002e-01	   6.3163396000000005e-01	   9.8132275000000002e-01	   7.9359192999999995e-01	
   9.3556211411319679e-01	   3.5316218743807459e-01	   7.5055293872790851e-01	   6.6081032540881224e-01	   4.6881567410711278e-01	   8.8329602269652130e-01	  -7.5498912487880121e-01	  -6.5573731121138890e-01	   1.4001715737051615e-01	   9.9014907748372927e-01	   5.4356626265643448e-01	  -8.3936625980659729e-01	  -9.6079039128376020e-01	   2.7727571840462140e-01	  -4.7475759859190841e-01	  -8.8011659601398518e-01	  -9.3792084501625916e-01	   3.4684937434567520e-01	   6.5340657000000002e-01	   3.7631806000000001e-01	   6.8737937999999998e-01	   3.8239364999999997e-01	   7.2312133000000001e-01	   3.8303543000000001e-01	
  -8.8192126434840123e-01	   4.7139673682591127e-01	   5.5557023301976505e-01	  -8.3146961230243643e-01	  -9.8017140329853411e-02	   9.9518472667216806e-01	   7.1352463705254587e-01	  -7.0063013945949593e-01	   1.8234815361934668e-02	  -9.9983373193182279e-01	  -6.8750265702685731e-01	  -7.2618186191959622e-01	  -9.9933498301743229e-01	  -3.6463566988821743e-02	  -2.9899778859002624e-01	   9.5425380398417803e-01	  -9.5954731151620487e-01	  -2.8154743288125245e-01	   7.6532071000000002e-01	   2.0263018999999999e-01	   8.2794668999999999e-01	   8.6061208000000000e-01	   5.9058873999999995e-01	   4.6253007000000002e-01	
   7.7023178224978017e-01	  -6.3776406422150123e-01	   1.8651399677534564e-01	  -9.8245230368038039e-01	  -4.8291376594817254e-01	  -8.7566791345678163e-01	   0.0000000000000000e+00	   0.0000000000000000e+00	   0.0000000000000000e+00	   0.0000000000000000e+00	   0.0000000000000000e+00	   0.0000000000000000e+00	   0.0000000000000000e+00	   0.0000000000000000e+00	   0.0000000000000000e+00	   0.0000000000000000e+00	   0.0000000000000000e+00	   0.0000000000000000e+00	   4.6483016999999999e-01	   9.0848616000000004e-01	   7.2225013000000005e-01	   7.7364414999999997e-01	   1.9337654000000001e-01	   8.6285699999999999e-01	
   9.5694033573220438e-01	   2.9028467725447726e-01	   8.3146961230252792e-01	   5.5557023301962816e-01	   6.3439328416360941e-01	   7.7301045336276664e-01	   0.0000000000000000e+00	   0.0000000000000000e+00	   0.0000000000000000e+00	   0.0000000000000000e+00	   0.0000000000000000e+00	   0.0000000000000000e+00	   0.0000000000000000e+00	   0.0000000000000000e+00	   0.0000000000000000e+00	   0.0000000000000000e+00	   0.0000000000000000e+00	   0.0000000000000000e+00	   2.5775717999999997e-01	   4.8198737999999998e-02	   8.6986105000000002e-01	   3.1802977999999998e-01	   7.6977649000000004e-01	   5.1731691000000002e-01	
  -2.3240853786995574e-01	   9.7261825580499428e-01	  -8.9197254305029872e-01	  -4.5208957347453066e-01	   6.4701260697088814e-01	  -7.6247930229005900e-01	   0.0000000000000000e+00	   0.0000000000000000e+00	   0.0000000000000000e+00	   0.0000000000000000e+00	   0.0000000000000000e+00	   0.0000000000000000e+00	   0.0000000000000000e+00	   0.0000000000000000e+00	   0.0000000000000000e+00	   0.0000000000000000e+00	   0.0000000000000000e+00	   0.0000000000000000e+00	   6.5742573000000004e-01	   1.6601648999999999e-01	   3.2525816000000002e-01	   1.5043329000000000e-01	   6.0782685999999997e-01	   7.0581147000000000e-01	
  -7.4697891639101266e-01	  -6.6484772577433737e-01	   1.1595500306538284e-01	   9.9325446752788737e-01	   5.7374703131122096e-01	  -8.1903256593468909e-01	   9.4056653678068547e-01	  -3.3960946672374653e-01	   7.6933082022322496e-01	  -6.3885059994857940e-01	   5.0664711365132187e-01	  -8.6215352590404948e-01	   1.8373982189068033e-01	  -9.8297491211707999e-01	  -9.2837195404080197e-01	  -3.7165241146865041e-01	  -4.7679479083536552e-01	  -8.7901463436751726e-01	   2.8549148000000002e-01	   5.6008343999999999e-01	   4.9788697999999998e-01	   6.8703427999999997e-02	   8.1459714000000005e-01	   7.5928547999999996e-01	
   9.7711449403762518e-01	   2.1271404641347896e-01	   9.0950546891680861e-01	   4.1569195567200490e-01	   8.0026745813257583e-01	   5.9964322347044496e-01	  -9.2889884811840506e-01	   3.7033353880562880e-01	   7.2570614007139966e-01	  -6.8800479523232250e-01	  -4.1931634705114990e-01	   9.0784018477685802e-01	   5.3298803474659859e-02	  -9.9857860859732495e-01	  -9.8641567355331672e-01	   1.6426843570313951e-01	  -8.2886538242937979e-01	  -5.5944810108731091e-01	   6.6598166999999997e-01	   9.8710611000000004e-01	   3.2731202999999998e-01	   5.3379304000000005e-01	   5.5814511000000000e-01	   8.6636835000000001e-01	
   1.0452846326760752e-01	   9.9452189536827817e-01	  -9.7814760073382490e-01	   2.0791169081766894e-01	  -3.0901699437481583e-01	  -9.5105651629519639e-01	   0.0000000000000000e+00	   0.0000000000000000e+00	   0.0000000000000000e+00	   0.0000000000000000e+00	   0.0000000000000000e+00	   0.0000000000000000e+00	   0.0000000000000000e+00	   0.0000000000000000e+00	   0.0000000000000000e+00	   0.0000000000000000e+00	   0.0000000000000000e+00	   0.0000000000000000e+00	   4.4852882999999999e-01	   4.3109257000000001e-01	   1.4753753000000000e-01	   9.6966814999999995e-01	   6.0411252000000004e-01	   4.2821374000000001e-01	
  -9.8972843460898519e-01	   1.4296022428090857e-01	   9.5912474854710461e-01	  -2.8298359797778616e-01	  -9.0881763733953946e-01	   4.1719360261223720e-01	   8.3295139813442953e-01	  -5.5334615598727988e-01	   3.8761606330820170e-01	  -9.2182090856383392e-01	  -1.8722071439057003e-01	  -9.8231787324831088e-01	  -6.9950757493090432e-01	  -7.1462518330540614e-01	  -7.4528919281603412e-01	   6.6674134345458469e-01	  -9.0350217394587462e-01	  -4.2858350606979551e-01	   9.5225108999999997e-01	   6.7249444999999997e-01	   4.4639752999999999e-01	   5.1951592999999996e-01	   2.4881742000000001e-01	   7.2345596999999995e-01	
   7.0067377086501570e-02	  -9.9754226109384359e-01	  -9.9018112533643599e-01	  -1.3979033953556749e-01	  -2.0882616567227064e-01	   9.7795277622726617e-01	  -9.7298790862835749e-01	   2.3085607997844690e-01	   8.9341094067396987e-01	  -4.4924034890473974e-01	  -7.6556817679576183e-01	   6.4335477512614547e-01	   5.9636621783189536e-01	  -8.0271248540737195e-01	   1.6211398531449189e-01	   9.8677203839866312e-01	  -2.9846340670343074e-01	   9.5442107838154044e-01	   5.4047257999999998e-01	   5.3010053000000001e-01	   3.4444893999999998e-01	   2.4427183000000000e-01	   7.3103178000000002e-01	   6.4497380999999998e-01	
   9.3891999625853384e-01	  -3.4413549748009847e-01	   7.6314151874825020e-01	  -6.4623140001288548e-01	   4.9413766759714328e-01	  -8.6938366988439297e-01	  -6.9197976710842091e-01	  -7.2191689404846016e-01	  -4.2328003825151263e-02	   9.9910376843057602e-01	   7.5056001156660557e-01	  -6.6080229194301143e-01	  -9.9641668018435592e-01	  -8.4580136263704919e-02	  -8.9815086981707415e-01	  -4.3968740605893303e-01	  -4.0127641087176524e-01	   9.1595700885897169e-01	   4.5088529999999999e-01	   4.7514324000000002e-01	   2.2741743000000000e-01	   7.5064916999999998e-01	   2.0294609999999999e-01	   6.9459064999999998e-01	
   1.3909436048238483e-01	   9.9027913180173421e-01	  -9.6130551776399276e-01	   2.7548448507402695e-01	  -4.0651871292552544e-01	  -9.1364245525335253e-01	  -9.4621646086624683e-02	   9.9551330683816452e-01	  -9.8209348818371511e-01	  -1.8839421558833241e-01	   2.8047625101242091e-01	  -9.5986096525383169e-01	   9.2901523906571382e-01	   3.7004146468156041e-01	  -9.9899739054298053e-01	   4.4768445230044987e-02	   9.7267471584256138e-01	  -2.3217212830267228e-01	   2.9629664000000000e-01	   4.2250535000000000e-01	   3.9850762000000001e-01	   2.4092366000000001e-01	   2.9718696999999999e-01	   2.8416712999999999e-01	
  -9.9959950711832346e-01	   2.8298858083053022e-02	   9.9839834926239046e-01	  -5.6575049183662372e-02	  -9.9639748854254306e-01	   8.4805924475315056e-02	   0.0000000000000000e+00	   0.0000000000000000e+00	   0.0000000000000000e+00	   0.0000000000000000e+00	   0.0000000000000000e+00	   0.0000000000000000e+00	   0.0000000000000000e+00	   0.0000000000000000e+00	   0.0000000000000000e+00	   0.0000000000000000e+00	   0.0000000000000000e+00	   0.0000000000000000e+00	   2.7805085000000002e-01	   4.2172090000000001e-01	   6.8629983999999999e-01	   4.4883603000000000e-01	   2.3529486999999999e-01	   8.8695158999999996e-02	
   1.0106864282594217e-13	  -1.0000000000000000e+00	  -1.0000000000000000e+00	  -2.0213728565188435e-13	  -3.0320592847782651e-13	   1.0000000000000000e+00	   1.8190575956334670e-01	  -9.8331596887149242e-01	  -9.3382058927536382e-01	  -3.5774167641667398e-01	  -5.2164044673940080e-01	   8.5316542611941226e-01	   7.4404178590917536e-01	   6.6813308615955003e-01	  -9.8331596887147410e-01	  -1.8190575956344607e-01	   9.8331596887151085e-01	  -1.8190575956324731e-01	   5.7515903999999995e-01	   3.1302165999999998e-01	   6.4907917999999998e-01	   6.9179559000000002e-01	   7.7876458999999998e-01	   5.8760261000000003e-01	
   8.4928485523115715e-01	   5.2793487730494981e-01	   4.4256953065001525e-01	   8.9673419168682600e-01	  -9.7549655695518531e-02	   9.9523065903019980e-01	   9.9999458521404494e-01	   3.2908270374181849e-03	   9.9997834091481963e-01	   6.5816184365883245e-03	   9.9995126727824279e-01	   9.8723385596483203e-03	   9.9991336459751035e-01	   1.3162951769507963e-02	   8.4754291416722005e-01	   5.3072686821465542e-01	   8.5101759890368245e-01	   5.2513716908652652e-01	   1.6723926000000000e-01	   1.4156931000000000e-01	   3.5846525000000001e-01	   4.2579317999999999e-01	   4.7461094999999998e-01	   5.8141507000000003e-01	
  -8.4672419922834841e-01	   5.3203207651523432e-01	   4.3388373911777561e-01	  -9.0096886790231434e-01	   1.1196447610294806e-01	   9.9371220989328313e-01	  -9.9685286283815588e-01	   7.9274017504935762e-02	   9.8743126029725425e-01	  -1.5804906259695459e-01	  -9.7179449452825628e-01	   2.3582930353238726e-01	   9.5004098762444789e-01	  -3.1212517013782098e-01	   8.0188312188826805e-01	  -5.9748092758742100e-01	   8.8623576218198008e-01	  -4.6323446960445935e-01	   4.5536827000000002e-02	   6.2796236999999999e-01	   3.2992738999999999e-01	   1.5884036000000001e-02	   7.7046395000000001e-01	   5.4589935000000001e-01	
  -6.8101585878681470e-01	  -7.3226866659775713e-01	  -7.2434800161714427e-02	   9.9737314969149460e-01	   7.7967435406317753e-01	  -6.2618519753836954e-01	   0.0000000000000000e+00	   0.0000000000000000e+00	   0.0000000000000000e+00	   0.0000000000000000e+00	   0.0000000000000000e+00	   0.0000000000000000e+00	   0.0000000000000000e+00	   0.0000000000000000e+00	   0.0000000000000000e+00	   0.0000000000000000e+00	   0.0000000000000000e+00	   0.0000000000000000e+00	   2.7771989000000002e-01	   4.1034825999999996e-03	   3.0453596999999999e-01	   4.8077790999999998e-01	   5.7166245999999998e-01	   4.8382278000000001e-01	
   7.4185774444785790e-01	  -6.7055729583886925e-01	   1.0070582599452652e-01	  -9.9491624602815698e-01	  -5.9243895059774287e-01	  -8.0561534854708750e-01	   7.2149613327994400e-01	  -6.9241846427004627e-01	   4.1113340675821397e-02	  -9.9915448916495087e-01	  -6.6216990063229164e-01	  -7.4935373669357319e-01	  -9.9661938643694770e-01	  -8.2157157801629840e-02	   7.0941241073086331e-02	  -9.9748049620782575e-01	   9.9955374705273514e-01	   2.9871504027026600e-02	   7.2708189999999995e-01	   9.4806961999999995e-01	   1.1097197000000000e-01	   6.8411553999999997e-01	   8.3209474999999999e-01	   6.9685158000000003e-01	
   2.3958535475820705e-01	   9.7087530496216867e-01	  -8.8519771557076821e-01	   4.6521500873068727e-01	  -6.6374617219056098e-01	  -7.4795789915100053e-01	  -9.9776398828313784e-01	   6.6835796436687120e-02	   9.9106595262934749e-01	  -1.3337270162549777e-01	  -9.7993584681103230e-01	   1.9931316096722007e-01	   9.6442344492223187e-01	  -2.6436228718244731e-01	  -3.0393886334563719e-01	  -9.5269153840483023e-01	  -1.7416041484992109e-01	  -9.8471729440449218e-01	   5.2392307000000005e-01	   2.5192592000000003e-01	   9.3308488999999994e-01	   6.1328218999999995e-01	   3.5223564000000002e-01	   1.0019089000000000e-01	
  -9.9977164078030789e-01	  -2.1369751787302972e-02	   9.9908666741709817e-01	   4.2729743614919623e-02	  -9.9794539275033600e-01	  -6.4070219980717616e-02	   0.0000000000000000e+00	   0.0000000000000000e+00	   0.0000000000000000e+00	   0.0000000000000000e+00	   0.0000000000000000e+00	   0.0000000000000000e+00	   0.0000000000000000e+00	   0.0000000000000000e+00	   0.0000000000000000e+00	   0.0000000000000000e+00	   0.0000000000000000e+00	   0.0000000000000000e+00	   4.5824603000000003e-01	   5.9484857000000002e-01	   6.3025781000000003e-01	   2.2623393999999999e-01	   9.2787606000000000e-01	   9.4681091999999994e-02	
   2.5358329899762533e-01	  -9.6731355333701441e-01	  -8.7139102093896192e-01	  -4.9058912404063104e-01	  -6.9552371861084628e-01	   7.1850313628385809e-01	   7.2149613327994389e-01	   6.9241846427004639e-01	   4.1113340675821002e-02	   9.9915448916495087e-01	  -6.6216990063229209e-01	   7.4935373669357286e-01	  -9.9661938643694781e-01	   8.2157157801629049e-02	   8.5274513476037583e-01	  -5.2232722994547043e-01	  -4.8682639537805894e-01	  -8.7349874685840612e-01	   3.5531198000000003e-01	   8.4443659000000004e-01	   2.2517002000000000e-01	   1.8543270000000001e-01	   1.6217007999999999e-01	   3.9992443000000000e-01	
   8.9386668977093353e-01	   4.4833284612880375e-01	   5.9799531816409268e-01	   8.0149959416947025e-01	   1.7518950132077396e-01	   9.8453473205721820e-01	   0.0000000000000000e+00	   0.0000000000000000e+00	   0.0000000000000000e+00	   0.0000000000000000e+00	   0.0000000000000000e+00	   0.0000000000000000e+00	   0.0000000000000000e+00	   0.0000000000000000e+00	   0.0000000000000000e+00	   0.0000000000000000e+00	   0.0000000000000000e+00	   0.0000000000000000e+00	   4.5301857000000001e-01	   2.4329603999999999e-01	   9.0791964999999997e-01	   7.4211888999999998e-01	   3.0310080000000000e-01	   3.8760654999999999e-01	
  -4.9583415694149474e-01	   8.6841723198593723e-01	  -5.0829697762023440e-01	  -8.6118185219042731e-01	   9.9989616368997214e-01	  -1.4410476677626377e-02	   8.7416542306592837e-01	  -4.8562826638898043e-01	   5.2833037376806691e-01	  -8.4903887788139287e-01	   4.9530866341157893e-02	  -9.9877259337623714e-01	  -4.4173403230818953e-01	  -8.9714605538939274e-01	  -1.1713120701651857e-02	   9.9993139904866901e-01	  -8.5516903044494741e-01	   5.1834923494478957e-01	   6.0566953000000000e-02	   5.2553223999999998e-01	   5.2270731000000004e-01	   9.3846021999999996e-01	   8.1980717000000003e-01	   9.5769493000000006e-01	
  -7.1089175164270624e-01	  -7.0330144137941653e-01	   1.0734165107270323e-02	   9.9994238719010697e-01	   6.9563009277164678e-01	  -7.1840014896331283e-01	   0.0000000000000000e+00	   0.0000000000000000e+00	   0.0000000000000000e+00	   0.0000000000000000e+00	   0.0000000000000000e+00	   0.0000000000000000e+00	   0.0000000000000000e+00	   0.0000000000000000e+00	   0.0000000000000000e+00	   0.0000000000000000e+00	   0.0000000000000000e+00	   0.0000000000000000e+00	   3.7791373000000000e-01	   9.8740463000000001e-01	   1.6123281000000000e-01	   8.7585117000000001e-01	   1.5159426000000001e-01	   1.9861865000000001e-01	
   7.5253064949527415e-01	  -6.5855722725532440e-01	   1.3260475685955814e-01	  -9.9116899591251217e-01	  -5.5295236188390173e-01	  -8.3321286925191851e-01	   9.4704797383079597e-01	  -3.2109209778969011e-01	   7.9379972947403221e-01	  -6.0817924124961165e-01	   5.5648487702083638e-01	  -8.3085773851310107e-01	   2.6023602102609333e-01	  -9.6554503435132777e-01	   5.0122510523609853e-01	  -8.6531693262125753e-01	   9.2414014846404602e-01	  -3.8205364282630644e-01	   9.5278744000000004e-01	   7.8910534000000004e-02	   2.2656873999999999e-01	   9.2374175999999997e-01	   6.1863931000000005e-01	   2.6699905999999999e-02	
   2.4996640937670336e-01	   9.6825450899198928e-01	  -8.7503358836663669e-01	   4.8406220595106103e-01	  -6.8742441771274443e-01	  -7.2625592591888311e-01	  -9.5298721747359783e-01	   3.0301050036579513e-01	   8.1636927333614095e-01	  -5.7753026721776335e-01	  -6.0299174698150582e-01	   7.9774742435948465e-01	   3.3291758089475765e-01	  -9.4295592915638560e-01	  -5.3160607618487088e-01	  -8.4699172355066443e-01	   5.5176490317329158e-02	  -9.9847661711041669e-01	   7.2159008000000002e-01	   7.9331682000000003e-01	   9.2771767000000005e-01	   3.6357177000000002e-01	   4.1049654000000002e-01	   1.7630483999999998e-02	
  -9.8953855680958713e-01	  -1.4426865420873489e-01	   9.5837311082560095e-01	   2.8551879175714578e-01	  -9.0715573313337261e-01	  -4.2079505206603041e-01	  -9.6783550179484323e-01	  -2.5158386567012608e-01	   8.7341111706895191e-01	   4.8698359374866579e-01	  -7.2280107172840435e-01	  -6.9105615597306569e-01	   5.2569395883926884e-01	   8.5067376922054971e-01	   9.2141487995429161e-01	   3.8858026069117080e-01	   9.9400621139601197e-01	  -1.0932361001241594e-01	   6.5047193000000003e-01	   1.1041093000000000e-01	   6.7543158999999997e-01	   8.0778282999999995e-01	   4.0997950000000000e-01	   4.1673199000000000e-01	
   7.3305187182969545e-01	  -6.8017273777106035e-01	   7.4730093586040616e-02	  -9.9720379718120888e-01	  -6.2348980185918401e-01	  -7.8183148246767054e-01	   9.0077259412192812e-01	   4.3429107022692975e-01	   6.2278253264229588e-01	   7.8239498786460004e-01	   2.2119828088212240e-01	   9.7522885546665083e-01	  -2.2428383407129526e-01	   9.7452386413790792e-01	   9.5570598243974481e-01	  -2.9432307950427905e-01	   3.6492008998819492e-01	  -9.3103884340182486e-01	   5.5031434000000001e-01	   4.0779531000000002e-01	   7.5326172999999996e-01	   4.5661225999999999e-01	   1.9781436999999999e-02	   1.0532937000000001e-01	
   6.2790519529615355e-02	   9.9802672842825257e-01	  -9.9211470131440194e-01	   1.2533323356490461e-01	  -1.8738131458661628e-01	  -9.8228725072851863e-01	   0.0000000000000000e+00	   0.0000000000000000e+00	   0.0000000000000000e+00	   0.0000000000000000e+00	   0.0000000000000000e+00	   0.0000000000000000e+00	   0.0000000000000000e+00	   0.0000000000000000e+00	   0.0000000000000000e+00	   0.0000000000000000e+00	   0.0000000000000000e+00	   0.0000000000000000e+00	   2.8147613999999999e-01	   9.5004920999999998e-01	   5.8757740999999997e-01	   6.5825655000000005e-01	   8.8170724000000000e-01	   6.9284692000000003e-01	
  -8.8279294452434565e-01	  -4.6976229850642071e-01	   5.5864676580392891e-01	   8.2940568545001558e-01	  -1.0354590214176024e-01	  -9.9462467602088422e-01	   7.1352463705254587e-01	  -7.0063013945949593e-01	   1.8234815361934668e-02	  -9.9983373193182279e-01	  -6.8750265702685731e-01	  -7.2618186191959622e-01	  -9.9933498301743229e-01	  -3.6463566988821743e-02	  -9.5902414004964864e-01	   2.8332437029318863e-01	  -3.0076489061891515e-01	  -9.5369831737871491e-01	   4.4798781999999998e-01	   7.3508001000000001e-01	   7.7676754000000003e-01	   1.3054763999999999e-01	   5.0153698999999996e-01	   7.0228195999999998e-01	
   8.3622537429930721e-01	  -5.4838592558341925e-01	   3.9854575324403307e-01	  -9.1714845176293369e-01	  -1.6967723093552459e-01	  -9.8549968914355968e-01	  -8.8244193813916183e-01	   4.7042132797440178e-01	   5.5740754837360063e-01	  -8.3023901679945888e-01	  -1.0131765650123609e-01	   9.9485412623213132e-01	  -3.7859365003226414e-01	  -9.2556298983658991e-01	  -4.7994790466240356e-01	   8.7729699008384177e-01	  -9.9589277537325027e-01	   9.0540487956299362e-02	   5.3543015999999999e-01	   8.6006901000000002e-01	   4.3383716000000000e-01	   1.6025184000000001e-01	   7.8265741000000007e-03	   5.7761695000000002e-01	
   1.7525431396422644e-01	   9.8452319700295954e-01	  -9.3857185087385664e-01	   3.4508387494524129e-01	  -5.0423184562629086e-01	  -8.6356832147566898e-01	  -8.5611474884493488e-01	  -5.1678577458186092e-01	   4.6586492637965204e-01	   8.8485584722557009e-01	   5.8447079958574205e-02	  -9.9829050824112120e-01	  -5.6593974073856268e-01	   8.2444660824868965e-01	   3.5874977997350899e-01	  -9.3343376592501670e-01	  -6.5882538594045958e-01	  -7.5229589314338574e-01	   8.5916775999999995e-01	   4.7945725000000000e-01	   8.4298660999999997e-01	   4.1961865999999998e-01	   2.1684339999999999e-01	   4.3830756999999998e-01	
  -8.9448708222892437e-01	  -4.4709379298485624e-01	   6.0021428054882908e-01	   7.9983924473937362e-01	  -1.7928075881158545e-01	  -9.8379795157336147e-01	  -2.4877807282002378e-02	   9.9969049945712674e-01	  -9.9876218940967909e-01	  -4.9740215174286208e-02	   7.4571833819372116e-02	  -9.9721564448258426e-01	   9.9505182198883146e-01	   9.9357292418357265e-02	   4.6920829446114415e-01	  -8.8308752477252461e-01	  -4.2470253996528018e-01	   9.0533295121023827e-01	   7.8318619000000000e-01	   2.3732174000000000e-01	   8.1035619000000003e-01	   7.6660767000000005e-02	   2.0851449999999999e-01	   2.2766833000000000e-01	
   8.6356832147580909e-01	  -5.0423184562605083e-01	   4.9150049171309285e-01	  -8.7087729712387607e-01	  -1.4679812209387369e-02	  -9.9989224575125946e-01	   0.0000000000000000e+00	   0.0000000000000000e+00	   0.0000000000000000e+00	   0.0000000000000000e+00	   0.0000000000000000e+00	   0.0000000000000000e+00	   0.0000000000000000e+00	   0.0000000000000000e+00	   0.0000000000000000e+00	   0.0000000000000000e+00	   0.0000000000000000e+00	   0.0000000000000000e+00	   3.9361183000000001e-02	   2.0901030000000001e-01	   9.4451856000000001e-01	   3.4979283999999999e-01	   5.4746534000000002e-01	   6.8143271000000005e-02	
  -1.9926490372184272e-01	   9.7994566081223333e-01	  -9.2058699628944951e-01	  -3.9053755550877445e-01	   5.6614626208823804e-01	  -8.2430480401579376e-01	   8.7493792651803060e-01	  -4.8423509242962687e-01	   5.3103275051934151e-01	  -8.4735129543528920e-01	   5.4303460787088802e-02	  -9.9852447849141135e-01	  -4.3600843575172571e-01	  -8.9994257814225753e-01	   3.0017965594921975e-01	   9.5388268364312390e-01	  -6.4886849932962753e-01	   7.6090056549966978e-01	   3.5430421000000001e-01	   9.3995284000000001e-01	   9.2699158999999998e-01	   8.6225847000000000e-01	   8.5371808000000005e-01	   4.8550826000000002e-01	
  -3.2355492921328832e-01	  -9.4620938897359497e-01	  -7.9062441556356799e-01	   6.1230142374060070e-01	   8.3517578283722416e-01	   5.4998310134242279e-01	   0.0000000000000000e+00	   0.0000000000000000e+00	   0.0000000000000000e+00	   0.0000000000000000e+00	   0.0000000000000000e+00	   0.0000000000000000e+00	   0.0000000000000000e+00	   0.0000000000000000e+00	   0.0000000000000000e+00	   0.0000000000000000e+00	   0.0000000000000000e+00	   0.0000000000000000e+00	   7.3417745000000001e-01	   2.8394675000000003e-01	   8.7793616000000005e-02	   1.1448163000000000e-01	   7.6482381000000002e-02	   8.4364335000000001e-01	
   5.1388681172850681e-01	   8.5785799799938345e-01	  -4.7184068946302044e-01	   8.8168382301540582e-01	  -9.9883222683237083e-01	   4.8313379524592678e-02	   0.0000000000000000e+00	   0.0000000000000000e+00	   0.0000000000000000e+00	   0.0000000000000000e+00	   0.0000000000000000e+00	   0.0000000000000000e+00	   0.0000000000000000e+00	   0.0000000000000000e+00	   0.0000000000000000e+00	   0.0000000000000000e+00	   0.0000000000000000e+00	   0.0000000000000000e+00	   9.7321882000000004e-01	   3.5116351000000001e-01	   2.9387092999999997e-01	   3.8538603999999999e-01	   7.7853097999999998e-01	   7.4616408999999995e-01	
  -3.6360400091062334e-01	  -9.3155361119035307e-01	  -7.3558426104357488e-01	   6.7743324018310314e-01	   8.9852676155528011e-01	   4.3891873822950517e-01	   3.3588068572117241e-01	  -9.4190454132012491e-01	  -7.7436832991894999e-01	  -6.3273508644497989e-01	  -8.5607141702904443e-01	   5.1685755189015459e-01	   1.9929262076292756e-01	   9.7994002434304317e-01	  -9.9956213802017746e-01	   2.9589393987233616e-02	   7.5530701570653358e-01	  -6.5537112541253317e-01	   3.2153817000000001e-01	   5.0524932000000000e-01	   3.5550822999999998e-01	   7.0502801000000004e-01	   1.7854597999999999e-01	   6.9090256000000005e-01	
   5.9266219136386722e-01	   8.0545113255105594e-01	  -2.9750305385555753e-01	   9.5472086650843513e-01	  -9.4529981503482197e-01	   3.2620278922034285e-01	   0.0000000000000000e+00	   0.0000000000000000e+00	   0.0000000000000000e+00	   0.0000000000000000e+00	   0.0000000000000000e+00	   0.0000000000000000e+00	   0.0000000000000000e+00	   0.0000000000000000e+00	   0.0000000000000000e+00	   0.0000000000000000e+00	   0.0000000000000000e+00	   0.0000000000000000e+00	   7.1935230999999999e-01	   6.2589740999999999e-01	   8.9610791999999995e-01	   7.1243872000000000e-02	   6.6551517999999998e-01	   6.7633051000000000e-01	
  -9.9467498532921528e-01	  -1.0306150377481137e-01	   9.7875665287934910e-01	   2.0502539951043472e-01	  -9.5241453335806137e-01	  -3.0480576872550535e-01	   7.3904961799711233e-01	  -6.7365099431257602e-01	   9.2388675723355393e-02	  -9.9572302002016844e-01	  -6.0248998699590395e-01	  -7.9812644084109596e-01	  -9.8292866519616939e-01	  -1.8398706241384691e-01	  -8.0454165243209053e-01	   5.9389622788989083e-01	  -6.6568668344558890e-01	  -7.4623135787985506e-01	   1.3184731999999999e-01	   6.7872215999999996e-01	   9.1050288999999995e-01	   3.7682758000000000e-01	   3.4174049000000001e-01	   7.9762630999999995e-01	
   4.8540334115783307e-01	  -8.7429033872782347e-01	  -5.2876719278562456e-01	  -8.4876690312099834e-01	  -9.9873406530341358e-01	   5.0301757449585545e-02	   0.0000000000000000e+00	   0.0000000000000000e+00	   0.0000000000000000e+00	   0.0000000000000000e+00	   0.0000000000000000e+00	   0.0000000000000000e+00	   0.0000000000000000e+00	   0.0000000000000000e+00	   0.0000000000000000e+00	   0.0000000000000000e+00	   0.0000000000000000e+00	   0.0000000000000000e+00	   2.8960280000000001e-03	   1.0466211000000000e-01	   9.2677703000000000e-01	   4.6517374000000000e-01	   5.1175243000000004e-01	   1.8558978000000001e-01	
   7.9699436874142549e-01	   6.0398673511465195e-01	   2.7040004761108649e-01	   9.6274805336179314e-01	  -3.6597973823452690e-01	   9.3062281897758514e-01	   4.8429010945785195e-01	  -8.7490747504024780e-01	  -5.3092617976260348e-01	  -8.4741807370546895e-01	  -9.9853470488039286e-01	   5.4115091697481396e-02	  -4.3623478328537524e-01	   8.9983288106845805e-01	   9.1440899945203946e-01	  -4.0479152871709168e-01	  -1.4245601930188609e-01	   9.8980113283662219e-01	   7.0082990000000001e-01	   5.4971871999999999e-01	   1.0887246000000000e-01	   3.5439505999999998e-01	   4.1636793000000000e-01	   3.9992464999999999e-01	
  -7.7925769211859874e-01	   6.2670363751457125e-01	   2.1448510145200980e-01	  -9.7672726042387137e-01	   4.4497936181596542e-01	   8.9554082405988400e-01	   0.0000000000000000e+00	   0.0000000000000000e+00	   0.0000000000000000e+00	   0.0000000000000000e+00	   0.0000000000000000e+00	   0.0000000000000000e+00	   0.0000000000000000e+00	   0.0000000000000000e+00	   0.0000000000000000e+00	   0.0000000000000000e+00	   0.0000000000000000e+00	   0.0000000000000000e+00	   6.1895913999999996e-01	   8.8330118000000002e-01	   4.1888590999999997e-01	   2.3546617999999998e-02	   9.8396390000000000e-01	   9.1588742000000001e-01	
  -2.5525562058701323e-01	  -9.6687360505845787e-01	  -8.6968913631747757e-01	   4.9359984417679875e-01	   6.9924170100401639e-01	   7.1488533596445369e-01	   8.2757743721109689e-01	  -5.6135157024730309e-01	   3.6976882916177417e-01	  -9.2912378775937632e-01	  -2.1555275721459718e-01	  -9.7649219600424098e-01	  -7.2654202596066131e-01	  -6.8712203029227470e-01	  -7.5399980874936523e-01	  -6.5687463675036251e-01	   3.3151222411110765e-01	  -9.4345092361230254e-01	   7.5685062000000003e-01	   1.1499806999999999e-01	   5.7055418000000002e-01	   1.5310204999999999e-01	   5.8633944000000005e-01	   5.7236206000000001e-01	
   9.2246883288552517e-01	   3.8607156377389024e-01	   7.0189749529036605e-01	   7.1227796968958024e-01	   3.7248829368602959e-01	   9.2803689100534692e-01	  -5.7336465365277911e-01	   8.1930029533842386e-01	  -3.4250594788325717e-01	  -9.3951566014867016e-01	   9.6612626201698049e-01	   2.5806984682658463e-01	  -7.6537935132918300e-01	   6.4357940346076881e-01	  -8.4521956909460805e-01	   5.3441919877519850e-01	  -2.1260247665117712e-01	  -9.7713877567200536e-01	   1.7023534000000001e-01	   5.0183741999999998e-01	   3.1430173000000000e-01	   8.7830733999999999e-01	   1.4148056000000001e-01	   1.5134865000000000e-01	
  -8.1586415296160797e-01	   5.7824361986297612e-01	   3.3126863217552399e-01	  -9.4353648224992204e-01	   2.7532374897633927e-01	   9.6135156589543957e-01	   0.0000000000000000e+00	   0.0000000000000000e+00	   0.0000000000000000e+00	   0.0000000000000000e+00	   0.0000000000000000e+00	   0.0000000000000000e+00	   0.0000000000000000e+00	   0.0000000000000000e+00	   0.0000000000000000e+00	   0.0000000000000000e+00	   0.0000000000000000e+00	   0.0000000000000000e+00	   1.4183760000000001e-01	   8.1044006999999996e-01	   5.7750054000000002e-02	   9.1285280000000002e-01	   7.7878480000000005e-01	   5.5684644000000005e-01	
  -1.0647947562397886e-01	  -9.9431490045701443e-01	  -9.7732424254168493e-01	   2.1174825841154327e-01	   3.1460942134486158e-01	   9.4922121341711030e-01	   5.3571352474426892e-01	  -8.4439979832190371e-01	  -4.2602203881214312e-01	  -9.0471278450475368e-01	  -9.9216506080585476e-01	  -1.2493395101458392e-01	  -6.3701044489268965e-01	   7.7085516998825243e-01	  -8.9664179661380949e-01	  -4.4275669228726511e-01	   7.8255680621492352e-01	  -6.2257918777188392e-01	   1.2086920000000000e-01	   1.0115027000000000e-01	   4.5302782000000003e-01	   6.1118960999999999e-02	   5.7212554999999998e-01	   9.7164260000000002e-01	
   9.4051325950292020e-01	   3.3975698476880911e-01	   7.6913038260161437e-01	   6.3909189836759328e-01	   5.0624138674382468e-01	   8.6239182414241922e-01	   0.0000000000000000e+00	   0.0000000000000000e+00	   0.0000000000000000e+00	   0.0000000000000000e+00	   0.0000000000000000e+00	   0.0000000000000000e+00	   0.0000000000000000e+00	   0.0000000000000000e+00	   0.0000000000000000e+00	   0.0000000000000000e+00	   0.0000000000000000e+00	   0.0000000000000000e+00	   6.5176746999999993e-02	   6.8525322000000000e-02	   6.8474696000000002e-01	   6.9848558999999999e-01	   3.8469799999999998e-01	   1.1297314999999999e-01	
  -5.5630874069352609e-01	   8.3097568257319243e-01	  -3.8104117005596616e-01	  -9.2455807103847198e-01	   9.8026180762597070e-01	   1.9770378982170367e-01	   0.0000000000000000e+00	   0.0000000000000000e+00	   0.0000000000000000e+00	   0.0000000000000000e+00	   0.0000000000000000e+00	   0.0000000000000000e+00	   0.0000000000000000e+00	   0.0000000000000000e+00	   0.0000000000000000e+00	   0.0000000000000000e+00	   0.0000000000000000e+00	   0.0000000000000000e+00	   1.9426676000000001e-01	   5.9785590000000000e-01	   9.8304524999999998e-01	   3.7515108000000003e-01	   1.4513992000000001e-01	   6.3992000999999998e-01	
  -7.5144376294964077e-01	  -6.5979714391931410e-01	   1.2933545775183178e-01	   9.9160089722031020e-01	   5.5706711683793930e-01	  -8.3046747518362551e-01	   8.1062791511307464e-01	  -5.8556159645201278e-01	   3.1423523352114030e-01	  -9.4934515220435733e-01	  -3.0117221070444961e-01	  -9.5356976645623293e-01	  -8.0251243602782885e-01	  -5.9663539119019737e-01	  -9.9549315981246289e-01	  -9.4833373696174492e-02	  -2.2278942195671875e-01	  -9.7486659264957432e-01	   8.1733758999999995e-01	   4.6379801999999998e-01	   5.9958396000000003e-01	   8.1889157999999995e-01	   7.0302608000000003e-02	   3.1884844000000001e-01	
   9.0006541186425815e-01	  -4.3575480991679638e-01	   6.2023549126875333e-01	  -7.8441566491918568e-01	   2.1643961393902547e-01	  -9.7629600711972886e-01	  -6.1539165713365951e-01	   7.8822148431154071e-01	  -2.4258621666057684e-01	  -9.7012985083766368e-01	   9.1396272487073427e-01	   4.0579814877209897e-01	  -8.8230385497261532e-01	   4.7068026036839716e-01	  -2.1042144226732595e-01	   9.7761076949578374e-01	  -8.9736404840434614e-01	  -4.4129102033846362e-01	   8.8170216000000001e-01	   5.3828452999999998e-01	   8.4357081000000000e-01	   6.5821392999999995e-01	   9.0017956999999996e-02	   4.4515241999999999e-01	
   1.6890462803821632e-01	   9.8563239933926272e-01	  -9.4294245325454362e-01	   3.3295574758562568e-01	  -4.8743931669501983e-01	  -8.7315686594099007e-01	   0.0000000000000000e+00	   0.0000000000000000e+00	   0.0000000000000000e+00	   0.0000000000000000e+00	   0.0000000000000000e+00	   0.0000000000000000e+00	   0.0000000000000000e+00	   0.0000000000000000e+00	   0.0000000000000000e+00	   0.0000000000000000e+00	   0.0000000000000000e+00	   0.0000000000000000e+00	   4.0847431000000001e-01	   5.1214877999999997e-01	   4.7099468999999998e-02	   2.4412524999999999e-01	   4.7411931999999997e-02	   5.0952478000000001e-01	
  -9.4683037700375461e-01	  -3.2173317700064435e-01	   7.9297552563414408e-01	   6.0925349054827160e-01	  -5.5479625477810035e-01	  -8.3198624729270199e-01	   7.7883161140946033e-01	  -6.2723306758281117e-01	   2.1315735786131318e-01	  -9.7701788150963953e-01	  -4.4680423439564121e-01	  -8.9463175448120824e-01	  -9.0912788157916813e-01	  -4.1651710041170464e-01	  -9.3922311580653906e-01	   3.4330735316135680e-01	  -5.3561974069998330e-01	  -8.4445929053595159e-01	   3.0265553999999999e-03	   4.1922003000000002e-01	   5.4199657000000001e-01	   2.3251949000000000e-01	   2.1360826999999999e-01	   6.0398401000000002e-01	
   9.6625556861679607e-01	  -2.5758527930965325e-01	   8.6729964776593582e-01	  -4.9778642105333043e-01	   7.0981066000964721e-01	  -7.0439252333955749e-01	   9.9999810002388900e-01	   1.9493456881930322e-03	   9.9999240010277579e-01	   3.8986839689655849e-03	   9.9998290025831993e-01	   5.8480074349253272e-03	   9.9996960052662032e-01	   7.7973086787362228e-03	   9.6675585550786292e-01	  -2.5570122377740034e-01	   9.6575161000073428e-01	  -2.5946835603015167e-01	   9.7002737999999999e-01	   8.0204074999999997e-01	   7.7983367999999997e-01	   5.1029068000000000e-01	   2.9525336000000002e-01	   9.1732548999999997e-02	
  -6.1752461494616284e-01	   7.8655155580266534e-01	  -2.3732669987118671e-01	  -9.7142989326469242e-01	   9.1063477285495886e-01	   4.1321218576827751e-01	  -9.9611450850103755e-01	   8.8067507934177516e-02	   9.8448822809252712e-01	  -1.7545064476152891e-01	  -9.6521150640185249e-01	   2.6147035761146353e-01	   9.3843414250552759e-01	  -3.4545818875793805e-01	   5.4585559292309815e-01	  -8.3787927034541976e-01	   6.8439486368568037e-01	  -7.2911156249277731e-01	   8.3198532999999997e-01	   7.2433864999999997e-01	   4.6898153999999997e-01	   3.4113048000000001e-01	   8.8928784000000005e-01	   8.0636556000000004e-01	
   5.2062293165162554e-01	  -8.5378671987708199e-01	  -4.5790352607693374e-01	  -8.8900189021526321e-01	  -9.9741308397120509e-01	  -7.1882820778331705e-02	   0.0000000000000000e+00	   0.0000000000000000e+00	   0.0000000000000000e+00	   0.0000000000000000e+00	   0.0000000000000000e+00	   0.0000000000000000e+00	   0.0000000000000000e+00	   0.0000000000000000e+00	   0.0000000000000000e+00	   0.0000000000000000e+00	   0.0000000000000000e+00	   0.0000000000000000e+00	   4.9586532000000000e-01	   9.0141738999999999e-01	   4.4395461000000003e-01	   8.5462232999999999e-01	   6.2895334000000003e-01	   5.4830299000000005e-01	
  -9.5781732418805121e-01	   2.8737775398461440e-01	   8.3482805302951690e-01	  -5.5051078270543086e-01	  -6.4140821963165395e-01	   7.6719977567055631e-01	  -9.9984647333259524e-01	  -1.7522264818562717e-02	   9.9938594047125628e-01	   3.5039149367279483e-02	  -9.9861854282413398e-01	  -5.2545275028333692e-02	   9.9754451602323491e-01	   7.0035266487462861e-02	   9.6270578279456831e-01	  -2.7055050503352868e-01	   9.5263476457800400e-01	  -3.0411676263798904e-01	   6.5044033999999995e-01	   5.6954309999999997e-01	   7.9518736000000001e-01	   2.4965892000000001e-01	   6.2690756000000003e-01	   9.0735960999999998e-01	
   9.9888430448859433e-01	  -4.7224424256281421e-02	   9.9553970750732546e-01	  -9.4343472356219940e-02	   9.8997367215987275e-01	  -1.4125200327888018e-01	  -8.9996999351467288e-01	  -4.3595184455762959e-01	   6.1989197845360078e-01	   7.8468715743847917e-01	  -2.1579836614269721e-01	  -9.7643794742428069e-01	  -2.3146787009776112e-01	   9.7284254898334188e-01	  -9.1955347589520653e-01	  -3.9296489024980824e-01	  -8.7837832616981082e-01	   4.7796601983312736e-01	   3.1300602999999999e-01	   6.1145923000000002e-01	   1.2603991000000000e-01	   3.9130886999999998e-01	   4.4806550000000001e-02	   9.6047642000000000e-01	
  -7.6816101855108632e-01	   6.4025670600045859e-01	   1.8014270084288472e-01	  -9.8364048683095129e-01	   4.9140381742305839e-01	   8.7093185050384136e-01	  -5.9816503757276895e-01	   8.0137293928954700e-01	  -2.8439717565113593e-01	  -9.5870654867986427e-01	   9.3839793209067091e-01	   3.4555653813515463e-01	  -8.3823649296331393e-01	   5.4530686944560325e-01	  -5.3597333863884287e-02	  -9.9856262988491784e-01	   9.7257146291097785e-01	   2.3260427668295469e-01	   3.2644214999999999e-01	   4.5652431999999998e-01	   1.4974957000000000e-01	   1.5671549000000001e-01	   4.4814314999999999e-01	   6.0570250999999997e-01	
  -8.7050383605628801e-01	   4.9216163138880226e-01	   5.1555385717742552e-01	  -8.5685717616734636e-01	  -2.7079384676841040e-02	   9.9963328622326486e-01	  -8.8244193813916194e-01	  -4.7042132797440156e-01	   5.5740754837360107e-01	   8.3023901679945855e-01	  -1.0131765650123682e-01	  -9.9485412623213132e-01	  -3.7859365003226325e-01	   9.2556298983659036e-01	   9.9969242046305429e-01	  -2.4800493316057146e-02	   5.3664576403111786e-01	  -8.4380763444487616e-01	   5.5138945000000002e-02	   8.7777559999999999e-01	   8.6444631999999993e-02	   9.1470059999999997e-01	   1.6022053999999999e-01	   8.6690022000000000e-01	
  -7.2533441173990987e-01	  -6.8839668153319777e-01	   5.2220017708162078e-02	   9.9863560408717611e-01	   6.4958046008911496e-01	  -7.6029285533300506e-01	  -1.7930814087495259e-01	   9.8379296125555205e-01	  -9.3569718123193635e-01	  -3.5280417377719459e-01	   5.1486438485221653e-01	  -8.5727164026972724e-01	   7.5105842993078209e-01	   6.6023574186036649e-01	   8.0729817472575061e-01	  -5.9014375967595512e-01	  -5.4718144496232912e-01	   8.3701401797636432e-01	   9.3194966000000001e-01	   1.8940956000000000e-01	   1.0041213000000000e-01	   7.6597291999999995e-01	   6.9191013999999995e-01	   1.6323197000000000e-01	
   5.5738692886845886e-01	  -8.3025285999301901e-01	  -3.7863962305317517e-01	  -9.2554418363152680e-01	  -9.7948448215149908e-01	  -2.0151960009986522e-01	  -8.1586052815235999e-01	  -5.7824873419917855e-01	   3.3125680279409564e-01	   9.4354063537435084e-01	   2.7534182798905399e-01	  -9.6134638802028383e-01	  -7.8053786120526736e-01	   6.2510850836083398e-01	  -9.3484265952805345e-01	   3.5506225077655884e-01	   2.5342671184368237e-02	   9.9967882293126575e-01	   6.3366076000000005e-01	   3.5742994000000000e-01	   5.3749687999999995e-01	   1.6990314000000001e-01	   1.5714527000000000e-01	   7.9270034000000003e-02	
   7.6097878776085659e-01	   6.4877676020185648e-01	   1.5817743084396574e-01	   9.8741070501164940e-01	  -5.2023944861132099e-01	   8.5402044244185904e-01	  -6.5601828422518757e-02	   9.9784587993718865e-01	  -9.9139280021524478e-01	  -1.3092102841551342e-01	   1.9567618918060059e-01	  -9.8066856225116028e-01	   9.6571936863724861e-01	   2.5958832993583097e-01	  -6.9730081703428404e-01	   7.1677860637948732e-01	   5.9745761729855584e-01	  -8.0190048979404693e-01	   7.7650028000000004e-01	   4.4100043999999999e-01	   5.6154806999999995e-01	   9.3932313000000001e-01	   5.4448284000000002e-01	   4.1956911000000002e-01	
  -5.9736643639658216e-01	   8.0196841625269011e-01	  -2.8630668133369624e-01	  -9.5813802983896079e-01	   9.3942644028626632e-01	   3.4275058466919367e-01	   0.0000000000000000e+00	   0.0000000000000000e+00	   0.0000000000000000e+00	   0.0000000000000000e+00	   0.0000000000000000e+00	   0.0000000000000000e+00	   0.0000000000000000e+00	   0.0000000000000000e+00	   0.0000000000000000e+00	   0.0000000000000000e+00	   0.0000000000000000e+00	   0.0000000000000000e+00	   1.2838809000000001e-01	   3.5759326000000001e-02	   7.3669890000000005e-01	   7.5920354000000001e-01	   9.3400446999999998e-01	   3.8636867000000003e-01	
  -7.6296206416383683e-01	  -6.4644326019137777e-01	   1.6422222270628523e-01	   9.8642336832082766e-01	   5.1237141212871617e-01	  -8.5876395827562846e-01	   6.1969458755666984e-01	  -7.8484305319787906e-01	  -2.3195723630593765e-01	  -9.7272598429635437e-01	  -9.0717987532345667e-01	  -4.2074300209048937e-01	  -8.9239168105062283e-01	   4.5126166200071055e-01	  -9.8015996372118641e-01	   1.9820808640941601e-01	   3.4553040374397576e-02	  -9.9940286541558665e-01	   8.3680429000000001e-01	   9.1981645000000001e-01	   2.1343392000000000e-01	   7.1300145999999995e-02	   6.2903880000000001e-01	   7.6412068000000000e-01	
   8.0732729093560895e-01	  -5.9010392755053798e-01	   3.0355470937885887e-01	  -9.5281401039967739e-01	  -3.1719128858844770e-01	  -9.4836158001239168e-01	   0.0000000000000000e+00	   0.0000000000000000e+00	   0.0000000000000000e+00	   0.0000000000000000e+00	   0.0000000000000000e+00	   0.0000000000000000e+00	   0.0000000000000000e+00	   0.0000000000000000e+00	   0.0000000000000000e+00	   0.0000000000000000e+00	   0.0000000000000000e+00	   0.0000000000000000e+00	   6.9613860999999999e-01	   5.2914450999999996e-01	   9.7309447999999998e-01	   8.1696433000000002e-01	   6.6763687000000005e-01	   8.7969326000000003e-01	
   5.1006487977200121e-01	   8.6013593020125256e-01	  -4.7966763684634794e-01	   8.7745025965136059e-01	  -9.9938811080910595e-01	   3.4977192188712397e-02	   0.0000000000000000e+00	   0.0000000000000000e+00	   0.0000000000000000e+00	   0.0000000000000000e+00	   0.0000000000000000e+00	   0.0000000000000000e+00	   0.0000000000000000e+00	   0.0000000000000000e+00	   0.0000000000000000e+00	   0.0000000000000000e+00	   0.0000000000000000e+00	   0.0000000000000000e+00	   7.4366648000000002e-01	   5.5465629999999999e-01	   1.9349874000000000e-01	   7.6230061000000005e-01	   8.6353113000000004e-01	   1.7753421999999999e-01	
  -8.8339616570643720e-01	   4.6862694589104131e-01	   5.6077757116967009e-01	  -8.2796649429372782e-01	  -1.0738134666447288e-01	   9.9421790689391842e-01	   0.0000000000000000e+00	   0.0000000000000000e+00	   0.0000000000000000e+00	   0.0000000000000000e+00	   0.0000000000000000e+00	   0.0000000000000000e+00	   0.0000000000000000e+00	   0.0000000000000000e+00	   0.0000000000000000e+00	   0.0000000000000000e+00	   0.0000000000000000e+00	   0.0000000000000000e+00	   9.0814494000000001e-01	   4.7838828000000000e-01	   4.1911997000000001e-01	   1.8678417999999999e-01	   6.3443331999999997e-01	   4.0591326999999999e-01	
  -2.3048691779318312e-01	  -9.7307542396578817e-01	  -8.9375156145239687e-01	   4.4856231050033885e-01	   6.4248300313719842e-01	   7.6629993519496442e-01	   0.0000000000000000e+00	   0.0000000000000000e+00	   0.0000000000000000e+00	   0.0000000000000000e+00	   0.0000000000000000e+00	   0.0000000000000000e+00	   0.0000000000000000e+00	   0.0000000000000000e+00	   0.0000000000000000e+00	   0.0000000000000000e+00	   0.0000000000000000e+00	   0.0000000000000000e+00	   1.8450691999999999e-01	   5.8741968000000000e-01	   6.8900815000000004e-01	   7.0965964000000004e-01	   7.0029231999999997e-01	   9.8825742999999999e-01	
   9.9906560258904009e-01	  -4.3219460008173616e-02	   9.9626415655320377e-01	  -8.6358151713277792e-02	   9.9160089722033651e-01	  -1.2933545775162963e-01	   4.1184291495272779e-01	  -9.1125485644974213e-01	  -6.6077082680648047e-01	  -7.5058771269018276e-01	  -9.5611048180813774e-01	   2.9300639340569135e-01	  -1.2676382888296053e-01	   9.9193292701015401e-01	   3.7207414717369020e-01	  -9.2820301066360000e-01	   4.5084203282485746e-01	   8.9260375387870183e-01	   5.3602978999999995e-01	   7.4793394000000002e-01	   5.1835478000000001e-01	   4.1316714999999998e-01	   1.1173928000000000e-02	   8.7182791000000003e-03	
  -6.1436620930473851e-01	   7.8902101420971438e-01	  -2.4510832172905259e-01	  -9.6949569912360478e-01	   9.1553875028418708e-01	   4.0222978100591827e-01	   3.8291580241498663e-01	   9.2378324744546370e-01	  -7.0675097652177388e-01	   7.0746240690620388e-01	  -9.2416803697980743e-01	  -3.8198617700761012e-01	  -1.0061143710382238e-03	  -9.9999949386680809e-01	  -9.6413492482194085e-01	  -2.6541259717389143e-01	   4.9363386479678578e-01	   8.6966982673069015e-01	   8.8883670000000004e-01	   7.9961996999999996e-01	   6.1830443000000002e-01	   8.2849834000000000e-01	   8.7569995000000000e-01	   1.3026741999999999e-01	
  -2.8524387263837081e-01	  -9.5845497188040341e-01	  -8.3727186624452976e-01	   5.4678681585733413e-01	   7.6289721179586167e-01	   6.4651979415490457e-01	   0.0000000000000000e+00	   0.0000000000000000e+00	   0.0000000000000000e+00	   0.0000000000000000e+00	   0.0000000000000000e+00	   0.0000000000000000e+00	   0.0000000000000000e+00	   0.0000000000000000e+00	   0.0000000000000000e+00	   0.0000000000000000e+00	   0.0000000000000000e+00	   0.0000000000000000e+00	   4.7622002000000002e-01	   4.7968434999999998e-01	   9.9388991999999998e-01	   5.4520647000000000e-01	   7.2729621000000000e-01	   5.9146546000000000e-01	
   9.6043859927334929e-01	   2.7849182577922604e-01	   8.4488460594830639e-01	   5.3494859812095497e-01	   6.6248097569586484e-01	   7.4907873874583764e-01	   7.4064312712622682e-01	  -6.7189862199641692e-01	   9.7104483518632184e-02	  -9.9527419301445752e-01	  -5.9680359046379161e-01	  -8.0238735932810346e-01	  -9.8114143856115943e-01	  -1.9329117294418469e-01	   8.9846052155687461e-01	  -4.3905431463971378e-01	   5.2422397360021811e-01	   8.5158042808815060e-01	   2.7321804000000002e-02	   6.0965994000000001e-01	   7.5720936000000005e-01	   6.9858421000000004e-01	   2.5439425000000002e-02	   7.6115032000000005e-01	
  -9.2459694159095984e-01	   3.8094684091175141e-01	   7.0975900879871356e-01	  -7.0444456803148658e-01	  -3.8788507601288269e-01	   9.2170774533280353e-01	   7.9960158825120675e-01	   6.0053084855496608e-01	   2.7872539986770473e-01	   9.6037084059679156e-01	  -3.5386304341086794e-01	   9.3529725034771605e-01	  -8.4462430293717616e-01	   5.3535949313324893e-01	  -9.6807951261540748e-01	  -2.5064328687262932e-01	  -5.1053885336127203e-01	   8.5985468493726169e-01	   3.5806747999999999e-01	   8.6757947999999996e-01	   7.3205233999999997e-01	   4.9772812999999999e-01	   3.0142297000000001e-01	   8.2684687000000001e-01	
   1.6890462803821629e-01	  -9.8563239933926272e-01	  -9.4294245325454362e-01	  -3.3295574758562568e-01	  -4.8743931669501922e-01	   8.7315686594099040e-01	   0.0000000000000000e+00	   0.0000000000000000e+00	   0.0000000000000000e+00	   0.0000000000000000e+00	   0.0000000000000000e+00	   0.0000000000000000e+00	   0.0000000000000000e+00	   0.0000000000000000e+00	   0.0000000000000000e+00	   0.0000000000000000e+00	   0.0000000000000000e+00	   0.0000000000000000e+00	   2.8106929000000003e-01	   8.4947523000000003e-01	   4.3426817000000000e-02	   9.4377274000000000e-01	   3.3963515000000000e-01	   1.8888384999999999e-01	
   8.5672696154887207e-01	   5.1577021371463228e-01	   4.6796217328952500e-01	   8.8374849610629869e-01	  -5.4895339864589048e-02	   9.9849211397043658e-01	  -9.8727841151324547e-01	  -1.5900106339230191e-01	   9.4943732368023437e-01	   3.1395663458973733e-01	  -8.8743953399557229e-01	  -4.6092415157129873e-01	   8.0286246319417232e-01	   5.9616429379306701e-01	  -7.6382002125183823e-01	  -6.4542929522515591e-01	  -9.2783604614524096e-01	  -3.7298829937890310e-01	   7.1930673000000001e-01	   9.8462707000000005e-01	   4.2269416999999998e-01	   9.3585585000000004e-01	   1.7765892000000000e-01	   5.4953971999999995e-01	
  -7.6859390853061049e-01	   6.3973698014859159e-01	   1.8147319246072099e-01	  -9.8339589200795130e-01	   4.8963552795678361e-01	   8.7192720439408344e-01	  -7.2717543005509955e-01	   6.8645166903736277e-01	   5.7568212151637842e-02	  -9.9834157528857026e-01	   6.4345105119735824e-01	   7.6548725966734066e-01	  -9.9337180189932806e-01	  -1.1494547921202547e-01	   1.1975408820555357e-01	  -9.9280358498449051e-01	   9.9805112374139948e-01	   6.2401557661084989e-02	   8.5093138999999995e-01	   6.0786400999999997e-02	   5.4866034000000001e-02	   5.0547748000000003e-02	   5.9076693999999999e-02	   6.5202821000000000e-01	
  -5.4819460444460111e-01	  -8.3635080896584735e-01	  -3.9896535131565469e-01	   9.1696600179590970e-01	   9.8561591034777440e-01	  -1.6900082032146474e-01	  -1.8652060386304567e-01	  -9.8245104933251748e-01	  -9.3042012866912960e-01	   3.6649472597476807e-01	   5.3360565235444379e-01	   8.4573341412964664e-01	   7.3136323166535933e-01	  -6.8198814019600218e-01	  -7.1942414122312681e-01	   6.9457102230467871e-01	   9.2392331853406717e-01	  -3.8257770644536609e-01	   9.1591657999999998e-01	   5.8931489000000004e-01	   3.8025431999999998e-01	   4.9310388999999999e-01	   8.6797665000000002e-01	   6.1651536000000000e-02	
   8.9245077469053768e-01	  -4.5114478247482720e-01	   5.9293677049148164e-01	  -8.0524902123450737e-01	   1.6588298564471726e-01	  -9.8614544316423958e-01	  -6.7683585295344639e-01	   7.3613397432585648e-01	  -8.3786456313561478e-02	  -9.9648373280170288e-01	   7.9025520820331852e-01	   6.1277786016429292e-01	  -9.8595965947683128e-01	   1.6698368149112910e-01	  -2.7193967958706544e-01	   9.6231429931498169e-01	  -9.3614568302620260e-01	  -3.5161237201128831e-01	   4.3152274000000002e-01	   1.8600328999999999e-01	   1.7872371000000001e-01	   7.6912581000000002e-01	   2.8181739000000000e-01	   9.2094215999999995e-01	
   2.1842976777763995e-01	   9.7585267153838662e-01	  -9.0457687309721257e-01	   4.2631054485863867e-01	  -6.1360280043293558e-01	  -7.8961484490912337e-01	   3.1884805801683253e-01	  -9.4780584293350634e-01	  -7.9667183179778922e-01	  -6.0441210479271101e-01	  -8.2688259090770755e-01	   5.6237459122346278e-01	   2.6937201516008979e-01	   9.6303619737193280e-01	   9.9456477119532283e-01	   1.0411971906029645e-01	  -8.5527295665738645e-01	   5.1817773940080858e-01	   9.7340895999999996e-02	   1.0425172000000001e-01	   5.1975826000000003e-01	   5.0688496000000005e-01	   9.8037342999999999e-01	   9.0469071999999995e-01	
  -9.3913609159653988e-01	  -3.4354534120080188e-01	   7.6395319707844922e-01	   6.4527165804304165e-01	  -4.9577594773733219e-01	  -8.6845046470432041e-01	  -1.5156746220313444e-01	   9.8844691531781381e-01	  -9.5405460880260284e-01	  -2.9963278095447515e-01	   4.4077473392196387e-01	  -8.9761775491353890e-01	   8.2044039315497508e-01	   5.7173207123591552e-01	   4.8191880684839639e-01	  -8.7621587728471229e-01	  -1.9723385871508051e-01	   9.8035646831974321e-01	   9.6949507000000001e-01	   1.5785864999999999e-01	   6.0785133999999996e-01	   1.3009201999999999e-02	   1.5204972999999999e-01	   3.5381442000000002e-01	
   7.2343330411971940e-01	  -6.9039427466515513e-01	   4.6711491019148788e-02	  -9.9890842253270040e-01	  -6.5584800754303518e-01	  -7.5489296658654248e-01	  -9.6234420911158958e-01	  -2.7183381538982426e-01	   8.5221275362122184e-01	   5.2319539616221256e-01	  -6.7789980764525926e-01	  -7.3515430407127491e-01	   4.5253315486933088e-01	   8.9174757849069053e-01	  -8.8386436070359531e-01	   4.6774329698887707e-01	  -5.0851934109255603e-01	   8.6105056746673858e-01	   9.0554630000000003e-01	   1.9606881000000001e-01	   5.0033925999999995e-01	   5.6229861000000003e-01	   7.6018459000000005e-01	   5.7854501999999997e-01	
   3.4508387494506743e-01	   9.3857185087392059e-01	  -7.6183423850579413e-01	   6.4777202242787302e-01	  -8.7087729712387574e-01	  -4.9150049171309351e-01	  -1.2102325031571873e-01	   9.9264967278643623e-01	  -9.7070674576603777e-01	  -2.4026737965089831e-01	   3.5597942126771898e-01	  -9.3449379432605106e-01	   8.8454317255138215e-01	   4.6645833242931328e-01	  -9.7343621283395221e-01	   2.2895837950049475e-01	   8.8990986847916198e-01	  -4.5613641159569857e-01	   5.6474228999999998e-01	   8.3179641000000004e-01	   8.2523579000000002e-01	   5.0489280999999997e-01	   8.3927484999999996e-02	   4.0613567000000000e-01	
  -9.8184441002763678e-01	  -1.8968804521498431e-01	   9.2803689100503617e-01	   3.7248829368680392e-01	  -8.4053125743780688e-01	  -5.4176305269925817e-01	   0.0000000000000000e+00	   0.0000000000000000e+00	   0.0000000000000000e+00	   0.0000000000000000e+00	   0.0000000000000000e+00	   0.0000000000000000e+00	   0.0000000000000000e+00	   0.0000000000000000e+00	   0.0000000000000000e+00	   0.0000000000000000e+00	   0.0000000000000000e+00	   0.0000000000000000e+00	   1.5521019999999999e-01	   6.7690097000000005e-01	   3.9604307000000000e-01	   6.6065543000000004e-01	   6.6851232000000005e-01	   5.5394715000000005e-01	
   8.7718260240268076e-01	  -4.8015693480575761e-01	   5.3889863591587894e-01	  -8.4237061926921752e-01	   6.8242413365210128e-02	  -9.9766876919050229e-01	   0.0000000000000000e+00	   0.0000000000000000e+00	   0.0000000000000000e+00	   0.0000000000000000e+00	   0.0000000000000000e+00	   0.0000000000000000e+00	   0.0000000000000000e+00	   0.0000000000000000e+00	   0.0000000000000000e+00	   0.0000000000000000e+00	   0.0000000000000000e+00	   0.0000000000000000e+00	   7.7568884999999999e-01	   5.9118263999999998e-01	   4.2215070999999998e-01	   5.1011287000000005e-01	   2.7775594999999997e-01	   2.5586123000000000e-01	
  -9.9294314946782547e-01	   1.1859132314345638e-01	   9.7187219615016862e-01	  -2.3550888380324039e-01	  -9.3708452918329599e-01	   3.4910254247902650e-01	   9.7573627504693250e-01	  -2.1894913006800687e-01	   9.0412255688492604e-01	  -4.2727321719464667e-01	   7.8863407663468010e-01	  -6.1486282467763942e-01	   6.3487519573627260e-01	  -7.7261470723694459e-01	  -9.4288518295923196e-01	   3.3311789467985009e-01	  -9.9481611703097916e-01	  -1.0169018288608410e-01	   2.2194174999999999e-01	   4.4229339000000001e-01	   2.9983010999999998e-01	   3.0589000999999999e-01	   5.5432308000000000e-02	   8.9776138999999999e-01	
   5.1101867944708468e-01	   8.5956960698721641e-01	  -4.7771981851231532e-01	   8.7851225091091389e-01	  -9.9926618105081344e-01	   3.8302733689945918e-02	   1.6828552023015786e-01	   9.8573829370724209e-01	  -9.4335996736173022e-01	   3.3177096313462273e-01	  -4.8579316597370509e-01	  -8.7407379545050101e-01	   7.7985605604144959e-01	  -6.2595888990849513e-01	  -7.6131363339610258e-01	   6.4838379961657333e-01	   9.3330772203226431e-01	  -3.5907756264482138e-01	   6.9745040999999997e-01	   4.5628059999999998e-01	   8.3622041000000003e-01	   9.2224114000000001e-01	   1.3156071000000000e-02	   1.7719848999999999e-01	
   2.0188812443964237e-02	  -9.9979618515580582e-01	  -9.9918482370420492e-01	  -4.0369395328603008e-02	  -6.0533522449203563e-02	   9.9816616485427501e-01	   0.0000000000000000e+00	   0.0000000000000000e+00	   0.0000000000000000e+00	   0.0000000000000000e+00	   0.0000000000000000e+00	   0.0000000000000000e+00	   0.0000000000000000e+00	   0.0000000000000000e+00	   0.0000000000000000e+00	   0.0000000000000000e+00	   0.0000000000000000e+00	   0.0000000000000000e+00	   7.9897744000000004e-01	   1.0340134000000001e-02	   4.9272074999999999e-01	   7.2912332000000002e-01	   1.4542400999999999e-01	   5.8923868000000001e-01	
  -6.4140821963107419e-01	   7.6719977567104103e-01	  -1.7719099157939122e-01	  -9.8417648442904393e-01	   8.6871173651827827e-01	   4.9531799768976448e-01	  -9.7918055850881910e-02	   9.9519448066113370e-01	  -9.8082410867676717e-01	  -1.9489501747973259e-01	   2.8999883555748801e-01	  -9.5702699824785564e-01	   9.2403186432314943e-01	   3.8231546361020335e-01	  -7.0070753643922945e-01	  -7.1344863051047047e-01	   8.2631842818533019e-01	   5.6320320954458825e-01	   8.4686607000000003e-01	   9.4159585999999995e-01	   5.3784703000000000e-01	   3.2934529000000001e-01	   9.4645277999999999e-02	   9.1787079999999999e-01	
   9.7003125319448757e-01	  -2.4298017990348905e-01	   8.8192126434813622e-01	  -4.7139673682640704e-01	   7.4095112535449148e-01	  -6.7155895484753436e-01	   5.6415848077522124e-01	  -8.2566652382750405e-01	  -3.6345041713878862e-01	  -9.3161354341896541e-01	  -9.7424575111550016e-01	  -2.2548883882222423e-01	  -7.3580758856328110e-01	   6.7719066193553590e-01	   3.4663075760679074e-01	  -9.3800166198197232e-01	   7.4787195860658151e-01	   6.6384300367628768e-01	   8.6386870000000004e-01	   2.1529398999999999e-01	   9.3838275000000004e-01	   4.2993400999999998e-01	   5.0790226000000005e-01	   1.9699185000000000e-01	
  -7.4425603948470431e-01	  -6.6789441357937873e-01	   1.0783410461891564e-01	   9.9416890208909514e-01	   5.8374367223459755e-01	  -8.1193800571599484e-01	   0.0000000000000000e+00	   0.0000000000000000e+00	   0.0000000000000000e+00	   0.0000000000000000e+00	   0.0000000000000000e+00	   0.0000000000000000e+00	   0.0000000000000000e+00	   0.0000000000000000e+00	   0.0000000000000000e+00	   0.0000000000000000e+00	   0.0000000000000000e+00	   0.0000000000000000e+00	   8.7062484999999995e-02	   6.5568077000000002e-01	   3.3139590000000002e-01	   1.9491269000000000e-01	   9.5807690000000001e-01	   4.5322902999999998e-01	
   4.1987554961578528e-02	   9.9911813377015057e-01	  -9.9647409045669688e-01	   8.3901055109567926e-02	  -1.2566657624325780e-01	  -9.9207253344465574e-01	   7.1995591323008212e-01	  -6.9401980015345266e-01	   3.6673033989923200e-02	  -9.9932731803847630e-01	  -6.6714997787581620e-01	  -7.4492342359486730e-01	  -9.9731017715594783e-01	  -7.3296729402967678e-02	   7.2363695600551192e-01	   6.9018081391985742e-01	  -6.6317857905218913e-01	   7.4846120292659080e-01	   1.7113137000000000e-01	   8.0712225999999998e-01	   5.0445740999999999e-01	   7.1146816000000002e-01	   4.1467701000000001e-01	   7.5351853999999996e-01	
   7.8544288230520631e-01	  -6.1893414725323559e-01	   2.3384104272782028e-01	  -9.7227484115139262e-01	  -4.1810531710241738e-01	  -9.0839856000033770e-01	  -9.3030485278529595e-01	   3.6678724198658919e-01	   7.3093423823174253e-01	  -6.8244790231971719e-01	  -4.2967848500253142e-01	   9.0298194861576797e-01	   6.8529721238835467e-02	  -9.9764907522982627e-01	  -5.0368417615186856e-01	   8.6388786928293737e-01	  -9.5771847383653919e-01	   2.8770701220549022e-01	   3.9965740999999999e-01	   8.9580594000000002e-01	   2.1821591000000001e-01	   5.0154029000000000e-01	   5.6356702000000003e-01	   5.4666499000000002e-01	
  -6.5377815062593803e-01	   7.5668628226242374e-01	  -1.4514825952825669e-01	  -9.8940991644308773e-01	   8.4356767198785265e-01	   5.3702288850382773e-01	  -8.5995783983078533e-01	  -5.1036507885392146e-01	   4.7905497257286106e-01	   8.7778490147257338e-01	   3.6023681082877915e-02	  -9.9935093655894425e-01	  -5.4101266650643065e-01	   8.4101444379963042e-01	   9.4840790025538990e-01	  -3.1705276332680393e-01	   1.7603539202630483e-01	  -9.8438383812115948e-01	   5.6681848999999995e-01	   1.1749756000000000e-01	   5.5095559999999999e-01	   1.9165251000000000e-01	   5.8420760000000005e-01	   9.1905554000000000e-01	
   8.3007915729374515e-01	  -5.5764557976057327e-01	   3.7806281474698822e-01	  -9.2577994583247725e-01	  -2.0243503195518259e-01	  -9.7929569479157019e-01	  -7.1670404463284387e-01	   6.9737745332561663e-01	   2.7329375186154786e-02	  -9.9962648286844336e-01	   6.7752989716643264e-01	   7.3549523346221846e-01	  -9.9850621050386879e-01	  -5.4638334392656036e-02	  -2.0603163512613412e-01	   9.7854533125821597e-01	  -9.8381054366956533e-01	  -1.7921164628615599e-01	   7.4694870999999996e-01	   5.5798236000000001e-01	   4.6047434999999998e-02	   6.0392290999999998e-01	   7.5733245000000005e-01	   8.3761284000000003e-01	
  -7.7830372794549318e-01	   6.2788797334090396e-01	   2.1151338586770468e-01	  -9.7737510076673195e-01	   4.4906041448307654e-01	   8.9350139571479548e-01	   0.0000000000000000e+00	   0.0000000000000000e+00	   0.0000000000000000e+00	   0.0000000000000000e+00	   0.0000000000000000e+00	   0.0000000000000000e+00	   0.0000000000000000e+00	   0.0000000000000000e+00	   0.0000000000000000e+00	   0.0000000000000000e+00	   0.0000000000000000e+00	   0.0000000000000000e+00	   6.3666984000000004e-01	   9.7774329000000004e-01	   6.3712626000000006e-01	   5.4484125999999999e-01	   6.1690202999999999e-01	   9.7614727999999995e-01	
   8.1838124493909892e-01	  -5.7467568065120922e-01	   3.3949572413613888e-01	  -9.4060759793512128e-01	  -2.6270737819903134e-01	  -9.6487555334343045e-01	  -1.5502652584530829e-01	   9.8791030781358591e-01	  -9.5193355256866796e-01	  -3.0630460573421869e-01	   4.5017642882591380e-01	  -8.9293963005880017e-01	   8.1235497701200965e-01	   5.8316326300943988e-01	   4.4085722734525123e-01	   8.9757724185579568e-01	  -6.9459882978498488e-01	  -7.1939729333750602e-01	   9.9513551000000000e-01	   6.9356872000000003e-01	   1.6320981000000001e-01	   8.8698633999999998e-01	   7.3068392000000004e-01	   2.2863138999999999e-01	
  -5.5236497296038778e-01	   8.3360238522119767e-01	  -3.8978587329294023e-01	  -9.2090551794484321e-01	   9.8297309968397995e-01	   1.8374951781615226e-01	   0.0000000000000000e+00	   0.0000000000000000e+00	   0.0000000000000000e+00	   0.0000000000000000e+00	   0.0000000000000000e+00	   0.0000000000000000e+00	   0.0000000000000000e+00	   0.0000000000000000e+00	   0.0000000000000000e+00	   0.0000000000000000e+00	   0.0000000000000000e+00	   0.0000000000000000e+00	   8.2359053999999998e-01	   5.6726907999999998e-01	   6.8758925000000004e-01	   3.9869599000000000e-01	   6.2563318000000001e-01	   1.2653956999999999e-01	
   4.4243506882504918e-01	  -8.9680054074123638e-01	  -6.0850241974754804e-01	  -7.9355201793038044e-01	  -9.8088068874748002e-01	   1.9461005740266643e-01	   2.5900125899966953e-01	   9.6587698380103570e-01	  -8.6583669567317223e-01	   5.0032670968654325e-01	  -7.0750684753460014e-01	  -7.0670648836108196e-01	   4.9934636714847497e-01	  -8.6640245014405426e-01	   9.8079024121357627e-01	   1.9506538068097792e-01	  -7.5160776151099007e-01	  -6.5961031892810673e-01	   4.0955842999999997e-01	   6.8750612000000000e-01	   1.1880621000000000e-01	   7.5589958999999995e-01	   8.9126764999999997e-01	   9.3017773999999998e-01	
  -3.3293863702949422e-01	   9.4294849486753129e-01	  -7.7830372794588543e-01	  -6.2788797334041779e-01	   8.5119340178404901e-01	  -5.2485216276519098e-01	   0.0000000000000000e+00	   0.0000000000000000e+00	   0.0000000000000000e+00	   0.0000000000000000e+00	   0.0000000000000000e+00	   0.0000000000000000e+00	   0.0000000000000000e+00	   0.0000000000000000e+00	   0.0000000000000000e+00	   0.0000000000000000e+00	   0.0000000000000000e+00	   0.0000000000000000e+00	   4.1521881999999999e-01	   4.1613400000000000e-01	   6.9610092999999995e-01	   2.3216843000000001e-01	   6.1030793999999999e-01	   5.8259728000000000e-01	
   4.9545866843232150e-01	  -8.6863151443824027e-01	  -5.0904141575054185e-01	  -8.6074202700384272e-01	  -9.9987663248165592e-01	   1.5707317312116924e-02	   1.2676382888296159e-01	   9.9193292701015390e-01	  -9.6786186337386249e-01	   2.5148243164578077e-01	  -3.7214358014509913e-01	  -9.2817517514572012e-01	   8.7351317314705046e-01	  -4.8680050979695072e-01	   9.2443043847372119e-01	   3.8135071053202929e-01	  -7.9881796274625183e-01	  -6.0157282384922273e-01	   6.9796999000000004e-01	   5.5496045000000005e-01	   8.0064700000000000e-01	   2.4233271000000001e-01	   1.6095793000000000e-01	   8.3131217999999996e-01	
  -2.4669653506110339e-01	   9.6909278172363134e-01	  -8.7828163917769153e-01	  -4.7814366280789206e-01	   6.8003460944694905e-01	  -7.3318001197136806e-01	  -2.0729656942485011e-01	  -9.7827814669688307e-01	  -9.1405626460937661e-01	   4.0558740750712829e-01	   5.8625802525448378e-01	   8.1012439034059025e-01	   6.7099770974329331e-01	  -7.4145942135713339e-01	   9.9918163588908515e-01	   4.0448220010424779e-02	  -8.9690294507475721e-01	  -4.4222743822181254e-01	   4.3536578999999997e-01	   4.5170589999999999e-01	   4.0073591999999998e-02	   2.3765174999999999e-01	   4.5646409999999998e-01	   4.3854770999999998e-01	
   4.3235533059560721e-01	  -9.0170331490217071e-01	  -6.2613773621112634e-01	  -7.7971246962736585e-01	  -9.7378330647150035e-01	   2.2747762975165733e-01	  -1.8283317396975826e-01	   9.8314395207219996e-01	  -9.3314406099228819e-01	  -3.5950265845306439e-01	   5.2405255485425772e-01	  -8.5168592788112052e-01	   7.4151567713035860e-01	   6.7093554129283217e-01	   8.0745526323398442e-01	   5.8992880746386411e-01	  -9.6555305798506252e-01	  -2.6020624937863152e-01	   9.4103612999999997e-01	   1.7656638999999999e-01	   8.8424137000000003e-01	   2.6206210000000002e-01	   1.8693171000000000e-01	   1.4419333000000001e-01	
  -5.5274528423588953e-01	   8.3335025694781284e-01	  -3.8894530150997147e-01	  -9.2126084928934071e-01	   9.8272064670657533e-01	   1.8509492304385430e-01	   0.0000000000000000e+00	   0.0000000000000000e+00	   0.0000000000000000e+00	   0.0000000000000000e+00	   0.0000000000000000e+00	   0.0000000000000000e+00	   0.0000000000000000e+00	   0.0000000000000000e+00	   0.0000000000000000e+00	   0.0000000000000000e+00	   0.0000000000000000e+00	   0.0000000000000000e+00	   4.7058146000000001e-01	   7.1469884999999997e-02	   4.9976246000000002e-01	   4.8757648999999997e-01	   9.3300770000000000e-01	   2.6871382999999999e-01	
   5.3646091512072884e-02	  -9.9856001164951436e-01	  -9.9424419373095663e-01	  -1.0713768353049283e-01	  -1.6032072151654803e-01	   9.8706497569937790e-01	   0.0000000000000000e+00	   0.0000000000000000e+00	   0.0000000000000000e+00	   0.0000000000000000e+00	   0.0000000000000000e+00	   0.0000000000000000e+00	   0.0000000000000000e+00	   0.0000000000000000e+00	   0.0000000000000000e+00	   0.0000000000000000e+00	   0.0000000000000000e+00	   0.0000000000000000e+00	   3.4023712999999997e-02	   3.0911512000000002e-01	   2.0495543999999999e-01	   5.8442808999999996e-01	   6.3459217999999995e-01	   8.0661643999999999e-01	
   3.6188297198971880e-01	   9.3222353251990397e-01	  -7.3808142916777675e-01	   6.7471164501411429e-01	  -8.9608117430502709e-01	  -4.4389022185234450e-01	   0.0000000000000000e+00	   0.0000000000000000e+00	   0.0000000000000000e+00	   0.0000000000000000e+00	   0.0000000000000000e+00	   0.0000000000000000e+00	   0.0000000000000000e+00	   0.0000000000000000e+00	   0.0000000000000000e+00	   0.0000000000000000e+00	   0.0000000000000000e+00	   0.0000000000000000e+00	   2.4834043000000000e-01	   9.5582988000000002e-01	   1.0295743000000000e-01	   8.2718659000000005e-01	   9.1882069000000000e-01	   4.8950892000000001e-01	
  -4.9085790705768040e-01	  -8.7123964273841070e-01	  -5.1811703015790722e-01	   8.5530973516051501e-01	   9.9950158912618314e-01	   3.1568549764513003e-02	   9.9569780812340147e-01	  -9.2659996213328585e-02	   9.8282825020349185e-01	  -1.8452271026066788e-01	   9.6150206085534873e-01	  -2.7479772009774267e-01	   9.3190273879611518e-01	  -3.6270826489659624e-01	  -5.6947520415441488e-01	  -8.2200851081560433e-01	  -4.0801708016032978e-01	  -9.1297429443409794e-01	   9.0086695999999999e-01	   7.2856484999999999e-02	   2.8246363000000002e-01	   7.4593138000000003e-01	   9.7666052000000003e-01	   1.6481912000000001e-01	
  -2.7096199193412490e-01	   9.6259004717849184e-01	  -8.5315919785418248e-01	  -5.2165063319889493e-01	   7.3330942330910398e-01	  -6.7989505784795146e-01	   2.6648422119052423e-01	   9.6383928113377892e-01	  -8.5797231971295951e-01	   5.1369592037153966e-01	  -7.2375639203399533e-01	  -6.9005556659586020e-01	   4.7223300278727365e-01	  -8.8147376085650719e-01	  -9.9998919449184631e-01	  -4.6487524722533995e-03	   8.5557500370624961e-01	   5.1767887056847417e-01	   8.5366217000000000e-01	   8.4202984999999997e-01	   9.1382452999999997e-01	   3.6010881000000000e-01	   5.4081407000000004e-01	   6.1906989999999995e-01	
  -1.5046450327486111e-01	  -9.8861541220752236e-01	  -9.5472086650849863e-01	   2.9750305385535381e-01	   4.3776770516555275e-01	   8.9908811376532261e-01	   0.0000000000000000e+00	   0.0000000000000000e+00	   0.0000000000000000e+00	   0.0000000000000000e+00	   0.0000000000000000e+00	   0.0000000000000000e+00	   0.0000000000000000e+00	   0.0000000000000000e+00	   0.0000000000000000e+00	   0.0000000000000000e+00	   0.0000000000000000e+00	   0.0000000000000000e+00	   2.9901294000000000e-01	   9.1321580999999996e-01	   4.0650281999999999e-01	   4.0136907999999999e-01	   8.5502993000000005e-01	   6.2559485999999997e-01	
  -3.7292582592917178e-02	   9.9930438970493396e-01	  -9.9721852656710086e-01	  -7.4533282977071888e-02	   1.1167029112329874e-01	  -9.9374531248224651e-01	  -9.5809631872826440e-01	   2.8644623237066330e-01	   8.3589711192130389e-01	  -5.4888616149582703e-01	  -6.4364357280651452e-01	   7.6532538908941539e-01	   3.9744796343675370e-01	  -9.1762471433586446e-01	  -2.5051709132429928e-01	  -9.6811217684440509e-01	   3.2197686352058708e-01	  -9.4674753728617922e-01	   2.5779269999999999e-01	   3.6880628999999998e-01	   7.8096018000000000e-01	   6.5874904000000001e-01	   4.3351130999999998e-01	   2.9978302000000001e-01	
   9.9464152469519240e-01	  -1.0338393178837271e-01	   9.7862352529595420e-01	  -2.0565990308594162e-01	   9.5211766591071234e-01	  -3.0573182735975857e-01	   5.6609525961507468e-01	  -8.2433983104138620e-01	  -3.5907231408268231e-01	  -9.3330974132884070e-01	  -9.7263352933751812e-01	  -2.3234460959627043e-01	  -7.4213414651861509e-01	   6.7025137714971295e-01	   4.7783835928343737e-01	  -8.7844778011974767e-01	   6.4828534500908008e-01	   7.6139747270821567e-01	   7.9043790999999997e-01	   7.2899208999999998e-01	   6.2393421999999998e-01	   3.0957040000000002e-01	   7.9408104000000002e-01	   8.3602018000000000e-01	
  -6.8878280730062302e-01	  -7.2496775401880653e-01	  -5.1156488734145592e-02	   9.9869064963100218e-01	   7.5925422714451807e-01	  -6.5079414453664275e-01	   0.0000000000000000e+00	   0.0000000000000000e+00	   0.0000000000000000e+00	   0.0000000000000000e+00	   0.0000000000000000e+00	   0.0000000000000000e+00	   0.0000000000000000e+00	   0.0000000000000000e+00	   0.0000000000000000e+00	   0.0000000000000000e+00	   0.0000000000000000e+00	   0.0000000000000000e+00	   5.9877661000000004e-01	   9.3835318000000001e-02	   6.8551991999999995e-01	   2.2460580999999999e-01	   1.6377699000000001e-01	   5.3048331999999998e-01	
   2.1418751026242275e-01	  -9.7679256264960601e-01	  -9.0824742089516908e-01	  -4.1843353407354145e-01	  -6.0325801783002875e-01	   7.9754608890256906e-01	  -2.6656503131343134e-01	  -9.6381693494193665e-01	  -8.5788616816173868e-01	   5.1383978288642551e-01	   7.2392993787221838e-01	   6.8987349931152309e-01	   4.7193735504646211e-01	  -8.8163208477899080e-01	  -9.9854411418707156e-01	   5.3941190405446190e-02	   8.8435431342697435e-01	   4.6681628969339201e-01	   5.2773460999999999e-01	   7.2293697000000004e-02	   4.6384930000000002e-01	   6.2704190999999998e-01	   6.2004457999999996e-01	   3.2874437000000001e-01	
   9.9837648989460637e-01	   5.6959498116862947e-02	   9.9351123114855022e-01	   1.1373404759214414e-01	   9.8542002135531048e-01	   1.7013930031623903e-01	  -7.7150902096057783e-01	   6.3621838277155329e-01	   1.9045233884709867e-01	  -9.8169644321840643e-01	   4.7763762599342363e-01	   8.7855694080427504e-01	  -9.2745581325533988e-01	  -3.7393276729764696e-01	  -8.0649514804403588e-01	   5.9124070917133975e-01	  -7.3401778849325616e-01	  -6.7913024242443321e-01	   9.7048981999999995e-01	   5.7746900000000001e-01	   2.8890013999999999e-02	   1.8641483000000000e-01	   3.9677438999999998e-01	   9.5897284999999999e-01	
  -2.1849563325029120e-01	   9.7583792622061694e-01	  -9.0451931650110851e-01	  -4.2643265127844926e-01	   6.1376267494235159e-01	  -7.8949058186124632e-01	   0.0000000000000000e+00	   0.0000000000000000e+00	   0.0000000000000000e+00	   0.0000000000000000e+00	   0.0000000000000000e+00	   0.0000000000000000e+00	   0.0000000000000000e+00	   0.0000000000000000e+00	   0.0000000000000000e+00	   0.0000000000000000e+00	   0.0000000000000000e+00	   0.0000000000000000e+00	   6.4465114000000001e-01	   4.5263924000000000e-01	   8.1888753000000003e-01	   5.5387560999999996e-01	   1.9858390000000001e-01	   4.9543859000000001e-01	
  -6.0548739370815929e-01	  -7.9585489636019735e-01	  -2.6677003212100103e-01	   9.6376021393402622e-01	   9.2853917664493335e-01	  -3.7123442382886496e-01	   9.3785353923044490e-01	  -3.4703132272595855e-01	   7.5913852209414323e-01	  -6.5092910848472585e-01	   4.8606796019387816e-01	  -8.7392101363507824e-01	   1.5258259145455996e-01	  -9.8829072280630603e-01	  -8.4404507253042538e-01	  -5.3627224013285357e-01	  -2.9167191776680507e-01	  -9.5651842239772578e-01	   1.4127588000000000e-02	   2.8714867999999999e-01	   4.8197094000000001e-01	   3.4429989000000000e-01	   8.2718961000000002e-01	   4.8799459000000001e-01	
   9.8150130092427390e-01	   1.9145546814849099e-01	   9.2668960743208428e-01	   3.7582758211361961e-01	   8.3759280957091697e-01	   5.4629505338699302e-01	   0.0000000000000000e+00	   0.0000000000000000e+00	   0.0000000000000000e+00	   0.0000000000000000e+00	   0.0000000000000000e+00	   0.0000000000000000e+00	   0.0000000000000000e+00	   0.0000000000000000e+00	   0.0000000000000000e+00	   0.0000000000000000e+00	   0.0000000000000000e+00	   0.0000000000000000e+00	   4.8467873000000000e-01	   2.8297091000000002e-01	   6.3167496000000001e-01	   5.1219903000000000e-01	   5.0934820000000003e-01	   4.0371321999999998e-01	
  -9.0846527181948056e-01	   4.1796034488687722e-01	   6.5061830020408529e-01	  -7.5940491665484144e-01	  -2.7366299007178535e-01	   9.6182564317290375e-01	   5.5407923041561857e-01	  -8.3246393700990784e-01	  -3.8599241284407165e-01	  -9.2250195513441147e-01	  -9.8181998852544050e-01	  -1.8981440970564864e-01	  -7.0201971445362354e-01	   7.1215751103141001e-01	  -1.5542482445050440e-01	   9.8784772305478841e-01	  -8.5129865288760231e-01	  -5.2468143057645333e-01	   6.0987163000000000e-01	   3.9098449000000002e-01	   5.1526878999999998e-02	   8.2425678999999996e-01	   6.1994216999999996e-01	   1.3545753999999999e-01	
   5.3925289226374595e-01	  -8.4214388211586788e-01	  -4.1841263637036963e-01	  -9.0825704826640175e-01	  -9.9051334090858745e-01	  -1.3741659827731265e-01	   0.0000000000000000e+00	   0.0000000000000000e+00	   0.0000000000000000e+00	   0.0000000000000000e+00	   0.0000000000000000e+00	   0.0000000000000000e+00	   0.0000000000000000e+00	   0.0000000000000000e+00	   0.0000000000000000e+00	   0.0000000000000000e+00	   0.0000000000000000e+00	   0.0000000000000000e+00	   3.8524638000000000e-01	   8.6353519000000001e-01	   1.4944825000000000e-01	   9.8490493000000001e-01	   4.6037586000000003e-01	   2.1280705999999999e-01	
  -3.0163040805197777e-01	   9.5342492989138761e-01	  -8.1803819387679477e-01	  -5.7516390130013506e-01	   7.9512079649429890e-01	  -6.0645108539953296e-01	   4.7605314485336131e-01	  -8.7941651296483203e-01	  -5.4674680655044916e-01	  -8.3729799326577015e-01	  -9.9661421824710872e-01	   8.2219827217675165e-02	  -4.0213585905377142e-01	   9.1558000789831873e-01	   6.9486552288227710e-01	   7.1913969790962018e-01	  -9.8204973155537012e-01	   1.8862217460316114e-01	   8.3875074000000005e-01	   9.5058485999999998e-01	   1.3102269999999999e-01	   3.1380798999999998e-01	   1.2598856999999999e-01	   3.9542255999999998e-01	
   1.8040104476107433e-01	  -9.8359313898029654e-01	  -9.3491092609822568e-01	  -3.5488245978374017e-01	  -5.1771886041440207e-01	   8.5555080595556265e-01	   0.0000000000000000e+00	   0.0000000000000000e+00	   0.0000000000000000e+00	   0.0000000000000000e+00	   0.0000000000000000e+00	   0.0000000000000000e+00	   0.0000000000000000e+00	   0.0000000000000000e+00	   0.0000000000000000e+00	   0.0000000000000000e+00	   0.0000000000000000e+00	   0.0000000000000000e+00	   8.0138688999999996e-01	   2.9338744000000000e-01	   3.7903379999999998e-01	   1.5621023000000001e-01	   5.4551992000000005e-01	   9.3287514000000005e-01	
  -8.8493115911098694e-02	   9.9607678842363601e-01	  -9.8433793687268967e-01	  -1.7629187738865548e-01	   2.6270737819783246e-01	  -9.6487555334375685e-01	   4.9485407141160953e-01	  -8.6897609173518331e-01	  -5.1023889601470729e-01	  -8.6003271390900748e-01	  -9.9984166158249510e-01	   1.7794711685085635e-02	  -4.7931253798738549e-01	   8.7764428496292912e-01	   8.2177573597199727e-01	   5.6981105619993211e-01	  -9.0935809337301088e-01	   4.1601425218014154e-01	   9.6599643000000002e-01	   2.1925813999999999e-01	   2.2334204999999999e-01	   6.7347383000000005e-01	   6.6945167999999999e-01	   5.4227879000000001e-01	
